   0.000000   14.034904
   1.000000   14.507628
   2.000000   15.006183
   3.000000   15.531605
   4.000000   16.084800
   5.000000   16.666498
   6.000000   17.277180
   7.000000   17.917009
   8.000000   18.585735
   9.000000   19.282605
  10.000000   20.006251
  11.000000   20.754583
  12.000000   21.524686
  13.000000   22.312721
  14.000000   23.113864
  15.000000   23.922275
  16.000000   24.731123
  17.000000   25.532690
  18.000000   26.318548
  19.000000   27.079834
  20.000000   27.807605
  21.000000   28.493264
  22.000000   29.129021
  23.000000   29.708355
  24.000000   30.226416
  25.000000   30.680324
  26.000000   31.069319
  27.000000   31.394745
  28.000000   31.659847
  29.000000   31.869421
  30.000000   32.029344
  31.000000   32.146046
  32.000000   32.225976
  33.000000   32.275121
  34.000000   32.298625
  35.000000   32.300523
  36.000000   32.283619
  37.000000   32.249493
  38.000000   32.198621
  39.000000   32.130582
  40.000000   32.044325
  41.000000   31.938444
  42.000000   31.811454
  43.000000   31.662008
  44.000000   31.489079
  45.000000   31.292067
  46.000000   31.070862
  47.000000   30.825860
  48.000000   30.557961
  49.000000   30.268556
  50.000000   29.959515
  51.000000   29.633173
  52.000000   29.292320
  53.000000   28.940171
  54.000000   28.580325
  55.000000   28.216695
  56.000000   27.853414
  57.000000   27.494729
  58.000000   27.144887
  59.000000   26.808023
  60.000000   26.488075
  61.000000   26.188714
  62.000000   25.913303
  63.000000   25.664884
  64.000000   25.446179
  65.000000   25.259598
  66.000000   25.107255
  67.000000   24.990971
  68.000000   24.912270
  69.000000   24.872352
  70.000000   24.872063
  71.000000   24.911841
  72.000000   24.991651
  73.000000   25.110918
  74.000000   25.268449
  75.000000   25.462349
  76.000000   25.689952
  77.000000   25.947750
  78.000000   26.231341
  79.000000   26.535409
  80.000000   26.853734
  81.000000   27.179246
  82.000000   27.504145
  83.000000   27.820068
  84.000000   28.118332
  85.000000   28.390220
  86.000000   28.627322
  87.000000   28.821893
  88.000000   28.967217
  89.000000   29.057934
  90.000000   29.090320
  91.000000   29.062477
  92.000000   28.974427
  93.000000   28.828092
  94.000000   28.627168
  95.000000   28.376902
  96.000000   28.083786
  97.000000   27.755209
  98.000000   27.399083
  99.000000   27.023476
 100.000000   26.636287
 101.000000   26.244955
 102.000000   25.856242
 103.000000   25.476075
 104.000000   25.109450
 105.000000   24.760401
 106.000000   24.432012
 107.000000   24.126471
 108.000000   23.845162
 109.000000   23.588772
 110.000000   23.357410
 111.000000   23.150744
 112.000000   22.968120
 113.000000   22.808688
 114.000000   22.671511
 115.000000   22.555654
 116.000000   22.460266
 117.000000   22.384637
 118.000000   22.328234
 119.000000   22.290722
 120.000000   22.271965
 121.000000   22.272008
 122.000000   22.291038
 123.000000   22.329332
 124.000000   22.387192
 125.000000   22.464855
 126.000000   22.562418
 127.000000   22.679747
 128.000000   22.816403
 129.000000   22.971585
 130.000000   23.144099
 131.000000   23.332357
 132.000000   23.534413
 133.000000   23.748040
 134.000000   23.970835
 135.000000   24.200350
 136.000000   24.434235
 137.000000   24.670377
 138.000000   24.907012
 139.000000   25.142801
 140.000000   25.376856
 141.000000   25.608707
 142.000000   25.838228
 143.000000   26.065527
 144.000000   26.290815
 145.000000   26.514291
 146.000000   26.736042
 147.000000   26.955990
 148.000000   27.173868
 149.000000   27.389244
 150.000000   27.601555
 151.000000   27.810155
 152.000000   28.014338
 153.000000   28.213336
 154.000000   28.406280
 155.000000   28.592124
 156.000000   28.769549
 157.000000   28.936872
 158.000000   29.091974
 159.000000   29.232286
 160.000000   29.354843
 161.000000   29.456412
 162.000000   29.533697
 163.000000   29.583598
 164.000000   29.603490
 165.000000   29.591486
 166.000000   29.546656
 167.000000   29.469148
 168.000000   29.360217
 169.000000   29.222134
 170.000000   29.058011
 171.000000   28.871551
 172.000000   28.666769
 173.000000   28.447708
 174.000000   28.218201
 175.000000   27.981684
 176.000000   27.741083
 177.000000   27.498772
 178.000000   27.256598
 179.000000   27.015947
 180.000000   26.777849
 181.000000   26.543079
 182.000000   26.312255
 183.000000   26.085909
 184.000000   25.864535
 185.000000   25.648607
 186.000000   25.438587
 187.000000   25.234914
 188.000000   25.038000
 189.000000   24.848226
 190.000000   24.665947
 191.000000   24.491504
 192.000000   24.325223
 193.000000   24.167422
 194.000000   24.018396
 195.000000   23.878396
 196.000000   23.747585
 197.000000   23.625993
 198.000000   23.513455
 199.000000   23.409547
 200.000000   23.313529
 201.000000   23.224284
 202.000000   23.140278
 203.000000   23.059548
 204.000000   22.979708
 205.000000   22.898011
 206.000000   22.811438
 207.000000   22.716848
 208.000000   22.611155
 209.000000   22.491530
 210.000000   22.355613
 211.000000   22.201707
 212.000000   22.028931
 213.000000   21.837314
 214.000000   21.627821
 215.000000   21.402308
 216.000000   21.163409
 217.000000   20.914382
 218.000000   20.658919
 219.000000   20.400954
 220.000000   20.144484
 221.000000   19.893408
 222.000000   19.651406
 223.000000   19.421852
 224.000000   19.207758
 225.000000   19.011755
 226.000000   18.836087
 227.000000   18.682634
 228.000000   18.552936
 229.000000   18.448232
 230.000000   18.369491
 231.000000   18.317447
 232.000000   18.292627
 233.000000   18.295372
 234.000000   18.325850
 235.000000   18.384060
 236.000000   18.469829
 237.000000   18.582800
 238.000000   18.722408
 239.000000   18.887855
 240.000000   19.078073
 241.000000   19.291692
 242.000000   19.526994
 243.000000   19.781885
 244.000000   20.053854
 245.000000   20.339964
 246.000000   20.636835
 247.000000   20.940662
 248.000000   21.247245
 249.000000   21.552054
 250.000000   21.850317
 251.000000   22.137132
 252.000000   22.407613
 253.000000   22.657055
 254.000000   22.881101
 255.000000   23.075916
 256.000000   23.238347
 257.000000   23.366046
 258.000000   23.457552
 259.000000   23.512323
 260.000000   23.530709
 261.000000   23.513872
 262.000000   23.463672
 263.000000   23.382519
 264.000000   23.273223
 265.000000   23.138845
 266.000000   22.982584
 267.000000   22.807673
 268.000000   22.617328
 269.000000   22.414718
 270.000000   22.202956
 271.000000   21.985122
 272.000000   21.764273
 273.000000   21.543463
 274.000000   21.325746
 275.000000   21.114166
 276.000000   20.911728
 277.000000   20.721358
 278.000000   20.545858
 279.000000   20.387851
 280.000000   20.249739
 281.000000   20.133656
 282.000000   20.041441
 283.000000   19.974612
 284.000000   19.934348
 285.000000   19.921475
 286.000000   19.936454
 287.000000   19.979368
 288.000000   20.049898
 289.000000   20.147305
 290.000000   20.270395
 291.000000   20.417490
 292.000000   20.586394
 293.000000   20.774361
 294.000000   20.978075
 295.000000   21.193648
 296.000000   21.416637
 297.000000   21.642094
 298.000000   21.864652
 299.000000   22.078644
 300.000000   22.278267
 301.000000   22.457768
 302.000000   22.611663
 303.000000   22.734958
 304.000000   22.823370
 305.000000   22.873528
 306.000000   22.883137
 307.000000   22.851088
 308.000000   22.777517
 309.000000   22.663791
 310.000000   22.512434
 311.000000   22.326992
 312.000000   22.111851
 313.000000   21.872021
 314.000000   21.612909
 315.000000   21.340087
 316.000000   21.059090
 317.000000   20.775235
 318.000000   20.493479
 319.000000   20.218323
 320.000000   19.953755
 321.000000   19.703223
 322.000000   19.469644
 323.000000   19.255434
 324.000000   19.062549
 325.000000   18.892540
 326.000000   18.746608
 327.000000   18.625655
 328.000000   18.530342
 329.000000   18.461123
 330.000000   18.418287
 331.000000   18.401984
 332.000000   18.412238
 333.000000   18.448957
 334.000000   18.511935
 335.000000   18.600831
 336.000000   18.715156
 337.000000   18.854237
 338.000000   19.017180
 339.000000   19.202820
 340.000000   19.409673
 341.000000   19.635873
 342.000000   19.879127
 343.000000   20.136658
 344.000000   20.405177
 345.000000   20.680873
 346.000000   20.959427
 347.000000   21.236076
 348.000000   21.505721
 349.000000   21.763080
 350.000000   22.002895
 351.000000   22.220175
 352.000000   22.410456
 353.000000   22.570068
 354.000000   22.696361
 355.000000   22.787888
 356.000000   22.844500
 357.000000   22.867360
 358.000000   22.858866
 359.000000   22.822490
 360.000000   22.762572
 361.000000   22.684068
 362.000000   22.592303
 363.000000   22.492739
 364.000000   22.390772
 365.000000   22.291577
 366.000000   22.199997
 367.000000   22.120470
 368.000000   22.056999
 369.000000   22.013145
 370.000000   21.992050
 371.000000   21.996467
 372.000000   22.028802
 373.000000   22.091164
 374.000000   22.185406
 375.000000   22.313177
 376.000000   22.475956
 377.000000   22.675089
 378.000000   22.911814
 379.000000   23.187277
 380.000000   23.502541
 381.000000   23.858579
 382.000000   24.256261
 383.000000   24.696320
 384.000000   25.179316
 385.000000   25.705569
 386.000000   26.275089
 387.000000   26.887481
 388.000000   27.541838
 389.000000   28.236618
 390.000000   28.969502
 391.000000   29.737262
 392.000000   30.535612
 393.000000   31.359089
 394.000000   32.200959
 395.000000   33.053172
 396.000000   33.906399
 397.000000   34.750155
 398.000000   35.573041
 399.000000   36.363110
 400.000000   37.108358
 401.000000   37.797303
 402.000000   38.419642
 403.000000   38.966894
 404.000000   39.432984
 405.000000   39.814685
 406.000000   40.111857
 407.000000   40.327454
 408.000000   40.467282
 409.000000   40.539544
 410.000000   40.554210
 411.000000   40.522302
 412.000000   40.455144
 413.000000   40.363663
 414.000000   40.257781
 415.000000   40.145936
 416.000000   40.034742
 417.000000   39.928796
 418.000000   39.830604
 419.000000   39.740625
 420.000000   39.657404
 421.000000   39.577769
 422.000000   39.497082
 423.000000   39.409532
 424.000000   39.308449
 425.000000   39.186643
 426.000000   39.036762
 427.000000   38.851660
 428.000000   38.624763
 429.000000   38.350426
 430.000000   38.024245
 431.000000   37.643318
 432.000000   37.206411
 433.000000   36.714023
 434.000000   36.168339
 435.000000   35.573078
 436.000000   34.933245
 437.000000   34.254825
 438.000000   33.544453
 439.000000   32.809074
 440.000000   32.055652
 441.000000   31.290918
 442.000000   30.521178
 443.000000   29.752187
 444.000000   28.989072
 445.000000   28.236295
 446.000000   27.497652
 447.000000   26.776290
 448.000000   26.074747
 449.000000   25.394995
 450.000000   24.738491
 451.000000   24.106244
 452.000000   23.498868
 453.000000   22.916652
 454.000000   22.359620
 455.000000   21.827584
 456.000000   21.320199
 457.000000   20.836998
 458.000000   20.377429
 459.000000   19.940878
 460.000000   19.526684
 461.000000   19.134155
 462.000000   18.762571
 463.000000   18.411195
 464.000000   18.079276
 465.000000   17.766054
 466.000000   17.470767
 467.000000   17.192653
 468.000000   16.930958
 469.000000   16.684939
 470.000000   16.453871
 471.000000   16.237050
 472.000000   16.033793
 473.000000   15.843450
 474.000000   15.665397
 475.000000   15.499042
 476.000000   15.343826
 477.000000   15.199222
 478.000000   15.064737
 479.000000   14.939910
 480.000000   14.824314
 481.000000   14.717551
 482.000000   14.619257
 483.000000   14.529095
 484.000000   14.446760
 485.000000   14.371974
 486.000000   14.304485
 487.000000   14.244069
 488.000000   14.190526
 489.000000   14.143683
 490.000000   14.103387
 491.000000   14.069513
 492.000000   14.041954
 493.000000   14.020627
 494.000000   14.005469
 495.000000   13.996440
 496.000000   13.993515
 497.000000   13.996693
 498.000000   14.005985
 499.000000   14.021425
 500.000000   14.043055
 501.000000   14.070935
 502.000000   14.105134
 503.000000   14.145726
 504.000000   14.192791
 505.000000   14.246404
 506.000000   14.306635
 507.000000   14.373534
 508.000000   14.447126
 509.000000   14.527400
 510.000000   14.614293
 511.000000   14.707673
 512.000000   14.807325
 513.000000   14.912928
 514.000000   15.024037
 515.000000   15.140057
 516.000000   15.260228
 517.000000   15.383606
 518.000000   15.509051
 519.000000   15.635231
 520.000000   15.760623
 521.000000   15.883548
 522.000000   16.002207
 523.000000   16.114743
 524.000000   16.219315
 525.000000   16.314185
 526.000000   16.397809
 527.000000   16.468922
 528.000000   16.526609
 529.000000   16.570355
 530.000000   16.600062
 531.000000   16.616041
 532.000000   16.618972
 533.000000   16.609842
 534.000000   16.589870
 535.000000   16.560434
 536.000000   16.522993
 537.000000   16.479030
 538.000000   16.430001
 539.000000   16.377304
 540.000000   16.322253
 541.000000   16.266069
 542.000000   16.209873
 543.000000   16.154680
 544.000000   16.101400
 545.000000   16.050837
 546.000000   16.003688
 547.000000   15.960546
 548.000000   15.921904
 549.000000   15.888158
 550.000000   15.859614
 551.000000   15.836498
 552.000000   15.818963
 553.000000   15.807099
 554.000000   15.800943
 555.000000   15.800491
 556.000000   15.805702
 557.000000   15.816512
 558.000000   15.832834
 559.000000   15.854572
 560.000000   15.881620
 561.000000   15.913869
 562.000000   15.951212
 563.000000   15.993544
 564.000000   16.040764
 565.000000   16.092780
 566.000000   16.149508
 567.000000   16.210871
 568.000000   16.276805
 569.000000   16.347255
 570.000000   16.422175
 571.000000   16.501532
 572.000000   16.585303
 573.000000   16.673475
 574.000000   16.766048
 575.000000   16.863030
 576.000000   16.964443
 577.000000   17.070317
 578.000000   17.180694
 579.000000   17.295628
 580.000000   17.415181
 581.000000   17.539430
 582.000000   17.668460
 583.000000   17.802369
 584.000000   17.941266
 585.000000   18.085272
 586.000000   18.234522
 587.000000   18.389161
 588.000000   18.549349
 589.000000   18.715261
 590.000000   18.887084
 591.000000   19.065021
 592.000000   19.249292
 593.000000   19.440133
 594.000000   19.637798
 595.000000   19.842558
 596.000000   20.054708
 597.000000   20.274560
 598.000000   20.502451
 599.000000   20.738741
 600.000000   20.983815
 601.000000   21.238087
 602.000000   21.501998
 603.000000   21.776022
 604.000000   22.060664
 605.000000   22.356466
 606.000000   22.664006
 607.000000   22.983904
 608.000000   23.316819
 609.000000   23.663460
 610.000000   24.024580
 611.000000   24.400984
 612.000000   24.793528
 613.000000   25.203126
 614.000000   25.630747
 615.000000   26.077421
 616.000000   26.544236
 617.000000   27.032344
 618.000000   27.542952
 619.000000   28.077328
 620.000000   28.636793
 621.000000   29.222713
 622.000000   29.836492
 623.000000   30.479558
 624.000000   31.153346
 625.000000   31.859272
 626.000000   32.598705
 627.000000   33.372930
 628.000000   34.183101
 629.000000   35.030188
 630.000000   35.914911
 631.000000   36.837666
 632.000000   37.798446
 633.000000   38.796754
 634.000000   39.831514
 635.000000   40.900988
 636.000000   42.002711
 637.000000   43.133437
 638.000000   44.289138
 639.000000   45.465032
 640.000000   46.655685
 641.000000   47.855160
 642.000000   49.057246
 643.000000   50.255728
 644.000000   51.444702
 645.000000   52.618900
 646.000000   53.773986
 647.000000   54.906802
 648.000000   56.015526
 649.000000   57.099724
 650.000000   58.160289
 651.000000   59.199271
 652.000000   60.219616
 653.000000   61.224829
 654.000000   62.218587
 655.000000   63.204338
 656.000000   64.184890
 657.000000   65.162035
 658.000000   66.136226
 659.000000   67.106341
 660.000000   68.069567
 661.000000   69.021424
 662.000000   69.955966
 663.000000   70.866157
 664.000000   71.744420
 665.000000   72.583324
 666.000000   73.376364
 667.000000   74.118747
 668.000000   74.808114
 669.000000   75.445101
 670.000000   76.033688
 671.000000   76.581280
 672.000000   77.098526
 673.000000   77.598913
 674.000000   78.098176
 675.000000   78.613620
 676.000000   79.163422
 677.000000   79.765978
 678.000000   80.439345
 679.000000   81.200802
 680.000000   82.066546
 681.000000   83.051487
 682.000000   84.169152
 683.000000   85.431640
 684.000000   86.849619
 685.000000   88.432328
 686.000000   90.187560
 687.000000   92.121604
 688.000000   94.239130
 689.000000   96.543004
 690.000000   99.034018
 691.000000  101.710533
 692.000000  104.568042
 693.000000  107.598642
 694.000000  110.790454
 695.000000  114.126999
 696.000000  117.586590
 697.000000  121.141791
 698.000000  124.759027
 699.000000  128.398442
 700.000000  132.014102
 701.000000  135.554661
 702.000000  138.964567
 703.000000  142.185859
 704.000000  145.160533
 705.000000  147.833380
 706.000000  150.155115
 707.000000  152.085502
 708.000000  153.596178
 709.000000  154.672828
 710.000000  155.316447
 711.000000  155.543517
 712.000000  155.385084
 713.000000  154.884834
 714.000000  154.096441
 715.000000  153.080471
 716.000000  151.901192
 717.000000  150.623569
 718.000000  149.310662
 719.000000  148.021551
 720.000000  146.809823
 721.000000  145.722592
 722.000000  144.799956
 723.000000  144.074801
 724.000000  143.572823
 725.000000  143.312669
 726.000000  143.306113
 727.000000  143.558193
 728.000000  144.067270
 729.000000  144.824993
 730.000000  145.816179
 731.000000  147.018625
 732.000000  148.402926
 733.000000  149.932362
 734.000000  151.562961
 735.000000  153.243838
 736.000000  154.917933
 737.000000  156.523236
 738.000000  157.994559
 739.000000  159.265859
 740.000000  160.273028
 741.000000  160.956976
 742.000000  161.266774
 743.000000  161.162519
 744.000000  160.617632
 745.000000  159.620282
 746.000000  158.173786
 747.000000  156.295916
 748.000000  154.017230
 749.000000  151.378640
 750.000000  148.428528
 751.000000  145.219731
 752.000000  141.806691
 753.000000  138.242999
 754.000000  134.579453
 755.000000  130.862688
 756.000000  127.134332
 757.000000  123.430618
 758.000000  119.782344
 759.000000  116.215079
 760.000000  112.749522
 761.000000  109.401946
 762.000000  106.184678
 763.000000  103.106579
 764.000000  100.173514
 765.000000   97.388794
 766.000000   94.753602
 767.000000   92.267371
 768.000000   89.928152
 769.000000   87.732923
 770.000000   85.677883
 771.000000   83.758687
 772.000000   81.970654
 773.000000   80.308927
 774.000000   78.768599
 775.000000   77.344800
 776.000000   76.032757
 777.000000   74.827838
 778.000000   73.725570
 779.000000   72.721654
 780.000000   71.811977
 781.000000   70.992622
 782.000000   70.259887
 783.000000   69.610305
 784.000000   69.040673
 785.000000   68.548084
 786.000000   68.129960
 787.000000   67.784084
 788.000000   67.508623
 789.000000   67.302140
 790.000000   67.163595
 791.000000   67.092329
 792.000000   67.088030
 793.000000   67.150691
 794.000000   67.280552
 795.000000   67.478040
 796.000000   67.743694
 797.000000   68.078092
 798.000000   68.481774
 799.000000   68.955157
 800.000000   69.498444
 801.000000   70.111526
 802.000000   70.793868
 803.000000   71.544394
 804.000000   72.361347
 805.000000   73.242148
 806.000000   74.183252
 807.000000   75.180000
 808.000000   76.226497
 809.000000   77.315524
 810.000000   78.438500
 811.000000   79.585531
 812.000000   80.745559
 813.000000   81.906634
 814.000000   83.056324
 815.000000   84.182252
 816.000000   85.272742
 817.000000   86.317534
 818.000000   87.308499
 819.000000   88.240282
 820.000000   89.110807
 821.000000   89.921565
 822.000000   90.677663
 823.000000   91.387618
 824.000000   92.062921
 825.000000   92.717447
 826.000000   93.366749
 827.000000   94.027348
 828.000000   94.716051
 829.000000   95.449373
 830.000000   96.243071
 831.000000   97.111808
 832.000000   98.068936
 833.000000   99.126375
 834.000000  100.294566
 835.000000  101.582478
 836.000000  102.997625
 837.000000  104.546095
 838.000000  106.232564
 839.000000  108.060279
 840.000000  110.031020
 841.000000  112.145030
 842.000000  114.400927
 843.000000  116.795603
 844.000000  119.324147
 845.000000  121.979789
 846.000000  124.753929
 847.000000  127.636251
 848.000000  130.614976
 849.000000  133.677264
 850.000000  136.809774
 851.000000  139.999377
 852.000000  143.233989
 853.000000  146.503463
 854.000000  149.800466
 855.000000  153.121270
 856.000000  156.466374
 857.000000  159.840916
 858.000000  163.254837
 859.000000  166.722825
 860.000000  170.264063
 861.000000  173.901825
 862.000000  177.662994
 863.000000  181.577512
 864.000000  185.677815
 865.000000  189.998246
 866.000000  194.574466
 867.000000  199.442839
 868.000000  204.639811
 869.000000  210.201266
 870.000000  216.161855
 871.000000  222.554296
 872.000000  229.408625
 873.000000  236.751367
 874.000000  244.604606
 875.000000  252.984898
 876.000000  261.902002
 877.000000  271.357380
 878.000000  281.342456
 879.000000  291.836616
 880.000000  302.804977
 881.000000  314.196001
 882.000000  325.939063
 883.000000  337.942155
 884.000000  350.089995
 885.000000  362.242837
 886.000000  374.236389
 887.000000  385.883239
 888.000000  396.976153
 889.000000  407.293554
 890.000000  416.607240
 891.000000  424.692181
 892.000000  431.337859
 893.000000  436.360288
 894.000000  439.613576
 895.000000  440.999748
 896.000000  440.475649
 897.000000  438.056018
 898.000000  433.812331
 899.000000  427.867567
 900.000000  420.387580
 901.000000  411.570170
 902.000000  401.633116
 903.000000  390.802393
 904.000000  379.301581
 905.000000  367.343158
 906.000000  355.122006
 907.000000  342.811158
 908.000000  330.559602
 909.000000  318.491781
 910.000000  306.708397
 911.000000  295.288136
 912.000000  284.289939
 913.000000  273.755556
 914.000000  263.712156
 915.000000  254.174841
 916.000000  245.148974
 917.000000  236.632259
 918.000000  228.616558
 919.000000  221.089446
 920.000000  214.035503
 921.000000  207.437386
 922.000000  201.276688
 923.000000  195.534615
 924.000000  190.192514
 925.000000  185.232256
 926.000000  180.636510
 927.000000  176.388925
 928.000000  172.474230
 929.000000  168.878273
 930.000000  165.588016
 931.000000  162.591491
 932.000000  159.877739
 933.000000  157.436729
 934.000000  155.259271
 935.000000  153.336922
 936.000000  151.661888
 937.000000  150.226926
 938.000000  149.025232
 939.000000  148.050330
 940.000000  147.295940
 941.000000  146.755837
 942.000000  146.423690
 943.000000  146.292878
 944.000000  146.356288
 945.000000  146.606094
 946.000000  147.033513
 947.000000  147.628561
 948.000000  148.379816
 949.000000  149.274205
 950.000000  150.296842
 951.000000  151.430956
 952.000000  152.657917
 953.000000  153.957412
 954.000000  155.307768
 955.000000  156.686435
 956.000000  158.070612
 957.000000  159.437985
 958.000000  160.767526
 959.000000  162.040291
 960.000000  163.240172
 961.000000  164.354537
 962.000000  165.374729
 963.000000  166.296401
 964.000000  167.119665
 965.000000  167.849062
 966.000000  168.493336
 967.000000  169.065021
 968.000000  169.579839
 969.000000  170.055943
 970.000000  170.513023
 971.000000  170.971340
 972.000000  171.450771
 973.000000  171.969908
 974.000000  172.545317
 975.000000  173.190998
 976.000000  173.918093
 977.000000  174.734859
 978.000000  175.646917
 979.000000  176.657729
 980.000000  177.769278
 981.000000  178.982869
 982.000000  180.299979
 983.000000  181.723065
 984.000000  183.256246
 985.000000  184.905786
 986.000000  186.680336
 987.000000  188.590932
 988.000000  190.650746
 989.000000  192.874669
 990.000000  195.278770
 991.000000  197.879708
 992.000000  200.694162
 993.000000  203.738319
 994.000000  207.027450
 995.000000  210.575584
 996.000000  214.395246
 997.000000  218.497275
 998.000000  222.890652
 999.000000  227.582362
1000.000000  232.577243
1001.000000  237.877855
1002.000000  243.484378
1003.000000  249.394589
1004.000000  255.603963
1005.000000  262.105969
1006.000000  268.892600
1007.000000  275.955180
1008.000000  283.285444
1009.000000  290.876861
1010.000000  298.726107
1011.000000  306.834576
1012.000000  315.209759
1013.000000  323.866347
1014.000000  332.826888
1015.000000  342.121925
1016.000000  351.789525
1017.000000  361.874250
1018.000000  372.425605
1019.000000  383.496080
1020.000000  395.138905
1021.000000  407.405641
1022.000000  420.343693
1023.000000  433.993850
1024.000000  448.387901
1025.000000  463.546367
1026.000000  479.476407
1027.000000  496.169909
1028.000000  513.601832
1029.000000  531.728801
1030.000000  550.488001
1031.000000  569.796368
1032.000000  589.550037
1033.000000  609.624005
1034.000000  629.871914
1035.000000  650.125886
1036.000000  670.196375
1037.000000  689.872121
1038.000000  708.920419
1039.000000  727.088117
1040.000000  744.103899
1041.000000  759.682487
1042.000000  773.531331
1043.000000  785.360141
1044.000000  794.893163
1045.000000  801.883612
1046.000000  806.129082
1047.000000  807.486332
1048.000000  805.883624
1049.000000  801.328902
1050.000000  793.912568
1051.000000  783.804296
1052.000000  771.244178
1053.000000  756.529232
1054.000000  739.996846
1055.000000  722.006990
1056.000000  702.924899
1057.000000  683.105668
1058.000000  662.881648
1059.000000  642.553119
1060.000000  622.382204
1061.000000  602.589710
1062.000000  583.354385
1063.000000  564.813988
1064.000000  547.067617
1065.000000  530.178811
1066.000000  514.179060
1067.000000  499.071472
1068.000000  484.834478
1069.000000  471.425542
1070.000000  458.784896
1071.000000  446.839369
1072.000000  435.506381
1073.000000  424.698096
1074.000000  414.325720
1075.000000  404.303775
1076.000000  394.554159
1077.000000  385.009705
1078.000000  375.616952
1079.000000  366.337889
1080.000000  357.150509
1081.000000  348.048181
1082.000000  339.037952
1083.000000  330.138031
1084.000000  321.374794
1085.000000  312.779630
1086.000000  304.385957
1087.000000  296.226622
1088.000000  288.331841
1089.000000  280.727726
1090.000000  273.435379
1091.000000  266.470482
1092.000000  259.843281
1093.000000  253.558843
1094.000000  247.617494
1095.000000  242.015327
1096.000000  236.744724
1097.000000  231.794838
1098.000000  227.152024
1099.000000  222.800208
1100.000000  218.721243
1101.000000  214.895271
1102.000000  211.301131
1103.000000  207.916872
1104.000000  204.720358
1105.000000  201.689995
1106.000000  198.805527
1107.000000  196.048859
1108.000000  193.404825
1109.000000  190.861821
1110.000000  188.412216
1111.000000  186.052499
1112.000000  183.783131
1113.000000  181.608120
1114.000000  179.534368
1115.000000  177.570874
1116.000000  175.727851
1117.000000  174.015866
1118.000000  172.445036
1119.000000  171.024330
1120.000000  169.761001
1121.000000  168.660127
1122.000000  167.724267
1123.000000  166.953191
1124.000000  166.343675
1125.000000  165.889337
1126.000000  165.580513
1127.000000  165.404160
1128.000000  165.343819
1129.000000  165.379664
1130.000000  165.488664
1131.000000  165.644922
1132.000000  165.820216
1133.000000  165.984788
1134.000000  166.108367
1135.000000  166.161403
1136.000000  166.116422
1137.000000  165.949399
1138.000000  165.640991
1139.000000  165.177479
1140.000000  164.551306
1141.000000  163.761121
1142.000000  162.811331
1143.000000  161.711222
1144.000000  160.473785
1145.000000  159.114393
1146.000000  157.649531
1147.000000  156.095696
1148.000000  154.468592
1149.000000  152.782652
1150.000000  151.050896
1151.000000  149.285037
1152.000000  147.495783
1153.000000  145.693199
1154.000000  143.887053
1155.000000  142.087073
1156.000000  140.303065
1157.000000  138.544897
1158.000000  136.822357
1159.000000  135.144947
1160.000000  133.521628
1161.000000  131.960599
1162.000000  130.469103
1163.000000  129.053306
1164.000000  127.718230
1165.000000  126.467751
1166.000000  125.304627
1167.000000  124.230551
1168.000000  123.246207
1169.000000  122.351330
1170.000000  121.544749
1171.000000  120.824428
1172.000000  120.187506
1173.000000  119.630348
1174.000000  119.148608
1175.000000  118.737323
1176.000000  118.391036
1177.000000  118.103945
1178.000000  117.870072
1179.000000  117.683450
1180.000000  117.538285
1181.000000  117.429101
1182.000000  117.350824
1183.000000  117.298811
1184.000000  117.268809
1185.000000  117.256856
1186.000000  117.259144
1187.000000  117.271882
1188.000000  117.291174
1189.000000  117.312966
1190.000000  117.333068
1191.000000  117.347269
1192.000000  117.351547
1193.000000  117.342335
1194.000000  117.316821
1195.000000  117.273237
1196.000000  117.211091
1197.000000  117.131300
1198.000000  117.036221
1199.000000  116.929551
1200.000000  116.816128
1201.000000  116.701654
1202.000000  116.592378
1203.000000  116.494770
1204.000000  116.415224
1205.000000  116.359808
1206.000000  116.334080
1207.000000  116.342957
1208.000000  116.390655
1209.000000  116.480674
1210.000000  116.615819
1211.000000  116.798255
1212.000000  117.029572
1213.000000  117.310863
1214.000000  117.642808
1215.000000  118.025745
1216.000000  118.459746
1217.000000  118.944685
1218.000000  119.480299
1219.000000  120.066241
1220.000000  120.702130
1221.000000  121.387597
1222.000000  122.122314
1223.000000  122.906033
1224.000000  123.738604
1225.000000  124.619996
1226.000000  125.550306
1227.000000  126.529762
1228.000000  127.558725
1229.000000  128.637682
1230.000000  129.767240
1231.000000  130.948117
1232.000000  132.181135
1233.000000  133.467212
1234.000000  134.807359
1235.000000  136.202677
1236.000000  137.654355
1237.000000  139.163671
1238.000000  140.731999
1239.000000  142.360807
1240.000000  144.051667
1241.000000  145.806260
1242.000000  147.626382
1243.000000  149.513951
1244.000000  151.471014
1245.000000  153.499757
1246.000000  155.602511
1247.000000  157.781763
1248.000000  160.040160
1249.000000  162.380526
1250.000000  164.805867
1251.000000  167.319384
1252.000000  169.924482
1253.000000  172.624788
1254.000000  175.424159
1255.000000  178.326700
1256.000000  181.336779
1257.000000  184.459041
1258.000000  187.698432
1259.000000  191.060214
1260.000000  194.549987
1261.000000  198.173717
1262.000000  201.937751
1263.000000  205.848853
1264.000000  209.914228
1265.000000  214.141554
1266.000000  218.539015
1267.000000  223.115335
1268.000000  227.879817
1269.000000  232.842386
1270.000000  238.013625
1271.000000  243.404826
1272.000000  249.028035
1273.000000  254.896104
1274.000000  261.022737
1275.000000  267.422550
1276.000000  274.111119
1277.000000  281.105037
1278.000000  288.421965
1279.000000  296.080685
1280.000000  304.101139
1281.000000  312.504474
1282.000000  321.313068
1283.000000  330.550546
1284.000000  340.241778
1285.000000  350.412854
1286.000000  361.091036
1287.000000  372.304663
1288.000000  384.083034
1289.000000  396.456229
1290.000000  409.454889
1291.000000  423.109929
1292.000000  437.452213
1293.000000  452.512160
1294.000000  468.319330
1295.000000  484.901972
1296.000000  502.286601
1297.000000  520.497619
1298.000000  539.557036
1299.000000  559.484351
1300.000000  580.296630
1301.000000  602.008825
1302.000000  624.634315
1303.000000  648.185634
1304.000000  672.675256
1305.000000  698.116248
1306.000000  724.522552
1307.000000  751.908580
1308.000000  780.287852
1309.000000  809.670415
1310.000000  840.058899
1311.000000  871.443203
1312.000000  903.793958
1313.000000  937.055081
1314.000000  971.135891
1315.000000 1005.903389
1316.000000 1041.175424
1317.000000 1076.715523
1318.000000 1112.230258
1319.000000 1147.369973
1320.000000 1181.733630
1321.000000 1214.878318
1322.000000 1246.333631
1323.000000 1275.620621
1324.000000 1302.274454
1325.000000 1325.869284
1326.000000 1346.043317
1327.000000 1362.521742
1328.000000 1375.135201
1329.000000 1383.831832
1330.000000 1388.681624
1331.000000 1389.872726
1332.000000 1387.700335
1333.000000 1382.549593
1334.000000 1374.874529
1335.000000 1365.175262
1336.000000 1353.975575
1337.000000 1341.802574
1338.000000 1329.169631
1339.000000 1316.563199
1340.000000 1304.433643
1341.000000 1293.189796
1342.000000 1283.196710
1343.000000 1274.775975
1344.000000 1268.207916
1345.000000 1263.735060
1346.000000 1261.566345
1347.000000 1261.881673
1348.000000 1264.836490
1349.000000 1270.566203
1350.000000 1279.190286
1351.000000 1290.815968
1352.000000 1305.541413
1353.000000 1323.458301
1354.000000 1344.653667
1355.000000 1369.210877
1356.000000 1397.209560
1357.000000 1428.724330
1358.000000 1463.822144
1359.000000 1502.558116
1360.000000 1544.969698
1361.000000 1591.069108
1362.000000 1640.833967
1363.000000 1694.196140
1364.000000 1751.028864
1365.000000 1811.132361
1366.000000 1874.218308
1367.000000 1939.893790
1368.000000 2007.645682
1369.000000 2076.826783
1370.000000 2146.645475
1371.000000 2216.161041
1372.000000 2284.287061
1373.000000 2349.805313
1374.000000 2411.392237
1375.000000 2467.659138
1376.000000 2517.205877
1377.000000 2558.685914
1378.000000 2590.878425
1379.000000 2612.761272
1380.000000 2623.577315
1381.000000 2622.886339
1382.000000 2610.596069
1383.000000 2586.968150
1384.000000 2552.598310
1385.000000 2508.373341
1386.000000 2455.410469
1387.000000 2394.986469
1388.000000 2328.464287
1389.000000 2257.224089
1390.000000 2182.603976
1391.000000 2105.853457
1392.000000 2028.100749
1393.000000 1950.333309
1394.000000 1873.389868
1395.000000 1797.961624
1396.000000 1724.600125
1397.000000 1653.729518
1398.000000 1585.661209
1399.000000 1520.609387
1400.000000 1458.706284
1401.000000 1400.016452
1402.000000 1344.549581
1403.000000 1292.271689
1404.000000 1243.114610
1405.000000 1196.983882
1406.000000 1153.765159
1407.000000 1113.329330
1408.000000 1075.536556
1409.000000 1040.239401
1410.000000 1007.285261
1411.000000  976.518251
1412.000000  947.780722
1413.000000  920.914518
1414.000000  895.762116
1415.000000  872.167741
1416.000000  849.978552
1417.000000  829.045965
1418.000000  809.227171
1419.000000  790.386849
1420.000000  772.399050
1421.000000  755.149138
1422.000000  738.535656
1423.000000  722.471923
1424.000000  706.887163
1425.000000  691.726999
1426.000000  676.953206
1427.000000  662.542693
1428.000000  648.485778
1429.000000  634.783920
1430.000000  621.447090
1431.000000  608.491036
1432.000000  595.934653
1433.000000  583.797664
1434.000000  572.098739
1435.000000  560.854140
1436.000000  550.076909
1437.000000  539.776551
1438.000000  529.959142
1439.000000  520.627742
1440.000000  511.783006
1441.000000  503.423865
1442.000000  495.548181
1443.000000  488.153320
1444.000000  481.236572
1445.000000  474.795437
1446.000000  468.827768
1447.000000  463.331804
1448.000000  458.306137
1449.000000  453.749639
1450.000000  449.661378
1451.000000  446.040557
1452.000000  442.886466
1453.000000  440.198474
1454.000000  437.976035
1455.000000  436.218718
1456.000000  434.926236
1457.000000  434.098476
1458.000000  433.735521
1459.000000  433.837646
1460.000000  434.405294
1461.000000  435.439031
1462.000000  436.939480
1463.000000  438.907233
1464.000000  441.342771
1465.000000  444.246380
1466.000000  447.618106
1467.000000  451.457754
1468.000000  455.764955
1469.000000  460.539326
1470.000000  465.780721
1471.000000  471.489585
1472.000000  477.667371
1473.000000  484.316991
1474.000000  491.443233
1475.000000  499.053063
1476.000000  507.155725
1477.000000  515.762573
1478.000000  524.886577
1479.000000  534.541493
1480.000000  544.740730
1481.000000  555.495986
1482.000000  566.815758
1483.000000  578.703872
1484.000000  591.158154
1485.000000  604.169380
1486.000000  617.720609
1487.000000  631.786945
1488.000000  646.335754
1489.000000  661.327254
1490.000000  676.715371
1491.000000  692.448669
1492.000000  708.471167
1493.000000  724.722849
1494.000000  741.139769
1495.000000  757.653778
1496.000000  774.192059
1497.000000  790.676801
1498.000000  807.025501
1499.000000  823.152338
1500.000000  838.971055
1501.000000  854.399517
1502.000000  869.365847
1503.000000  883.815710
1504.000000  897.719961
1505.000000  911.081724
1506.000000  923.941872
1507.000000  936.382072
1508.000000  948.524825
1509.000000  960.530397
1510.000000  972.590942
1511.000000  984.922453
1512.000000  997.755402
1513.000000 1011.324925
1514.000000 1025.861305
1515.000000 1041.581268
1516.000000 1058.680346
1517.000000 1077.326338
1518.000000 1097.653705
1519.000000 1119.758627
1520.000000 1143.694469
1521.000000 1169.467403
1522.000000 1197.032079
1523.000000 1226.287399
1524.000000 1257.072625
1525.000000 1289.164280
1526.000000 1322.274487
1527.000000 1356.051580
1528.000000 1390.083896
1529.000000 1423.907600
1530.000000 1457.019209
1531.000000 1488.893011
1532.000000 1519.002954
1533.000000 1546.847783
1534.000000 1571.977400
1535.000000 1594.017755
1536.000000 1612.691279
1537.000000 1627.830054
1538.000000 1639.379665
1539.000000 1647.392840
1540.000000 1652.013457
1541.000000 1653.452845
1542.000000 1651.961386
1543.000000 1647.798989
1544.000000 1641.207993
1545.000000 1632.391586
1546.000000 1621.499948
1547.000000 1608.625288
1548.000000 1593.805815
1549.000000 1577.037633
1550.000000 1558.292627
1551.000000 1537.539748
1552.000000 1514.766739
1553.000000 1489.999412
1554.000000 1463.316010
1555.000000 1434.855048
1556.000000 1404.816005
1557.000000 1373.453349
1558.000000 1341.065238
1559.000000 1307.978801
1560.000000 1274.534088
1561.000000 1241.068581
1562.000000 1207.903735
1563.000000 1175.334449
1564.000000 1143.621837
1565.000000 1112.989205
1566.000000 1083.620844
1567.000000 1055.663052
1568.000000 1029.226788
1569.000000 1004.391366
1570.000000  981.208690
1571.000000  959.707661
1572.000000  939.898451
1573.000000  921.776485
1574.000000  905.326017
1575.000000  890.523245
1576.000000  877.338983
1577.000000  865.740894
1578.000000  855.695326
1579.000000  847.168818
1580.000000  840.129292
1581.000000  834.547013
1582.000000  830.395335
1583.000000  827.651292
1584.000000  826.296047
1585.000000  826.315252
1586.000000  827.699326
1587.000000  830.443676
1588.000000  834.548875
1589.000000  840.020818
1590.000000  846.870854
1591.000000  855.115907
1592.000000  864.778593
1593.000000  875.887325
1594.000000  888.476415
1595.000000  902.586177
1596.000000  918.262997
1597.000000  935.559405
1598.000000  954.534092
1599.000000  975.251903
1600.000000  997.783742
1601.000000 1022.206402
1602.000000 1048.602264
1603.000000 1077.058840
1604.000000 1107.668111
1605.000000 1140.525599
1606.000000 1175.729111
1607.000000 1213.377080
1608.000000 1253.566411
1609.000000 1296.389737
1610.000000 1341.931980
1611.000000 1390.266126
1612.000000 1441.448099
1613.000000 1495.510701
1614.000000 1552.456555
1615.000000 1612.250151
1616.000000 1674.809107
1617.000000 1739.994993
1618.000000 1807.604190
1619.000000 1877.359514
1620.000000 1948.903562
1621.000000 2021.794980
1622.000000 2095.508976
1623.000000 2169.443479
1624.000000 2242.932104
1625.000000 2315.264687
1626.000000 2385.715367
1627.000000 2453.577213
1628.000000 2518.201279
1629.000000 2579.036894
1630.000000 2635.669335
1631.000000 2687.850833
1632.000000 2735.521448
1633.000000 2778.817463
1634.000000 2818.066542
1635.000000 2853.770501
1636.000000 2886.577860
1637.000000 2917.249149
1638.000000 2946.618107
1639.000000 2975.551583
1640.000000 3004.910269
1641.000000 3035.511677
1642.000000 3068.096038
1643.000000 3103.295339
1644.000000 3141.605384
1645.000000 3183.360658
1646.000000 3228.711882
1647.000000 3277.606353
1648.000000 3329.771552
1649.000000 3384.702991
1650.000000 3441.657770
1651.000000 3499.655816
1652.000000 3557.491075
1653.000000 3613.754930
1654.000000 3666.873669
1655.000000 3715.160804
1656.000000 3756.883508
1657.000000 3790.340451
1658.000000 3813.946258
1659.000000 3826.316052
1660.000000 3826.342550
1661.000000 3813.258299
1662.000000 3786.676927
1663.000000 3746.609640
1664.000000 3693.456057
1665.000000 3627.971349
1666.000000 3551.214057
1667.000000 3464.480461
1668.000000 3369.231969
1669.000000 3267.021750
1670.000000 3159.425907
1671.000000 3047.983230
1672.000000 2934.146108
1673.000000 2819.243776
1674.000000 2704.457860
1675.000000 2590.809222
1676.000000 2479.154482
1677.000000 2370.190256
1678.000000 2264.463073
1679.000000 2162.383087
1680.000000 2064.239906
1681.000000 1970.219233
1682.000000 1880.419287
1683.000000 1794.866303
1684.000000 1713.528676
1685.000000 1636.329494
1686.000000 1563.157392
1687.000000 1493.875758
1688.000000 1428.330385
1689.000000 1366.355735
1690.000000 1307.779966
1691.000000 1252.428894
1692.000000 1200.129063
1693.000000 1150.710065
1694.000000 1104.006250
1695.000000 1059.857939
1696.000000 1018.112236
1697.000000  978.623538
1698.000000  941.253793
1699.000000  905.872580
1700.000000  872.357039
1701.000000  840.591712
1702.000000  810.468298
1703.000000  781.885369
1704.000000  754.748040
1705.000000  728.967636
1706.000000  704.461340
1707.000000  681.151847
1708.000000  658.967021
1709.000000  637.839560
1710.000000  617.706681
1711.000000  598.509813
1712.000000  580.194309
1713.000000  562.709170
1714.000000  546.006796
1715.000000  530.042739
1716.000000  514.775483
1717.000000  500.166234
1718.000000  486.178727
1719.000000  472.779044
1720.000000  459.935447
1721.000000  447.618225
1722.000000  435.799547
1723.000000  424.453331
1724.000000  413.555121
1725.000000  403.081971
1726.000000  393.012342
1727.000000  383.326004
1728.000000  374.003943
1729.000000  365.028281
1730.000000  356.382198
1731.000000  348.049859
1732.000000  340.016349
1733.000000  332.267612
1734.000000  324.790391
1735.000000  317.572180
1736.000000  310.601174
1737.000000  303.866220
1738.000000  297.356779
1739.000000  291.062886
1740.000000  284.975114
1741.000000  279.084538
1742.000000  273.382707
1743.000000  267.861611
1744.000000  262.513660
1745.000000  257.331652
1746.000000  252.308753
1747.000000  247.438476
1748.000000  242.714657
1749.000000  238.131438
1750.000000  233.683252
1751.000000  229.364801
1752.000000  225.171044
1753.000000  221.097181
1754.000000  217.138640
1755.000000  213.291064
1756.000000  209.550300
1757.000000  205.912387
1758.000000  202.373545
1759.000000  198.930166
1760.000000  195.578805
1761.000000  192.316170
1762.000000  189.139116
1763.000000  186.044635
1764.000000  183.029851
1765.000000  180.092012
1766.000000  177.228484
1767.000000  174.436745
1768.000000  171.714378
1769.000000  169.059069
1770.000000  166.468599
1771.000000  163.940840
1772.000000  161.473751
1773.000000  159.065375
1774.000000  156.713831
1775.000000  154.417315
1776.000000  152.174094
1777.000000  149.982502
1778.000000  147.840939
1779.000000  145.747867
1780.000000  143.701806
1781.000000  141.701333
1782.000000  139.745077
1783.000000  137.831722
1784.000000  135.959997
1785.000000  134.128681
1786.000000  132.336596
1787.000000  130.582608
1788.000000  128.865622
1789.000000  127.184586
1790.000000  125.538481
1791.000000  123.926327
1792.000000  122.347179
1793.000000  120.800121
1794.000000  119.284274
1795.000000  117.798784
1796.000000  116.342831
1797.000000  114.915619
1798.000000  113.516381
1799.000000  112.144374
1800.000000  110.798883
1801.000000  109.479212
1802.000000  108.184691
1803.000000  106.914671
1804.000000  105.668525
1805.000000  104.445643
1806.000000  103.245438
1807.000000  102.067339
1808.000000  100.910796
1809.000000   99.775274
1810.000000   98.660254
1811.000000   97.565235
1812.000000   96.489731
1813.000000   95.433270
1814.000000   94.395394
1815.000000   93.375660
1816.000000   92.373639
1817.000000   91.388913
1818.000000   90.421076
1819.000000   89.469736
1820.000000   88.534511
1821.000000   87.615031
1822.000000   86.710936
1823.000000   85.821876
1824.000000   84.947513
1825.000000   84.087516
1826.000000   83.241565
1827.000000   82.409349
1828.000000   81.590564
1829.000000   80.784917
1830.000000   79.992121
1831.000000   79.211898
1832.000000   78.443976
1833.000000   77.688094
1834.000000   76.943993
1835.000000   76.211426
1836.000000   75.490148
1837.000000   74.779924
1838.000000   74.080523
1839.000000   73.391722
1840.000000   72.713302
1841.000000   72.045051
1842.000000   71.386762
1843.000000   70.738232
1844.000000   70.099265
1845.000000   69.469671
1846.000000   68.849261
1847.000000   68.237854
1848.000000   67.635272
1849.000000   67.041343
1850.000000   66.455897
1851.000000   65.878770
1852.000000   65.309801
1853.000000   64.748834
1854.000000   64.195715
1855.000000   63.650296
1856.000000   63.112430
1857.000000   62.581977
1858.000000   62.058796
1859.000000   61.542753
1860.000000   61.033715
1861.000000   60.531553
1862.000000   60.036141
1863.000000   59.547355
1864.000000   59.065076
1865.000000   58.589185
1866.000000   58.119568
1867.000000   57.656112
1868.000000   57.198707
1869.000000   56.747247
1870.000000   56.301626
1871.000000   55.861742
1872.000000   55.427495
1873.000000   54.998786
1874.000000   54.575519
1875.000000   54.157601
1876.000000   53.744940
1877.000000   53.337446
1878.000000   52.935032
1879.000000   52.537611
1880.000000   52.145099
1881.000000   51.757415
1882.000000   51.374477
1883.000000   50.996207
1884.000000   50.622527
1885.000000   50.253362
1886.000000   49.888638
1887.000000   49.528283
1888.000000   49.172225
1889.000000   48.820396
1890.000000   48.472726
1891.000000   48.129150
1892.000000   47.789601
1893.000000   47.454017
1894.000000   47.122334
1895.000000   46.794490
1896.000000   46.470426
1897.000000   46.150083
1898.000000   45.833403
1899.000000   45.520328
1900.000000   45.210804
1901.000000   44.904776
1902.000000   44.602190
1903.000000   44.302995
1904.000000   44.007137
1905.000000   43.714568
1906.000000   43.425238
1907.000000   43.139098
1908.000000   42.856101
1909.000000   42.576200
1910.000000   42.299349
1911.000000   42.025503
1912.000000   41.754619
1913.000000   41.486652
1914.000000   41.221561
1915.000000   40.959304
1916.000000   40.699839
1917.000000   40.443127
1918.000000   40.189129
1919.000000   39.937805
1920.000000   39.689117
1921.000000   39.443029
1922.000000   39.199504
1923.000000   38.958504
1924.000000   38.719997
1925.000000   38.483945
1926.000000   38.250316
1927.000000   38.019076
1928.000000   37.790192
1929.000000   37.563632
1930.000000   37.339363
1931.000000   37.117356
1932.000000   36.897578
1933.000000   36.680000
1934.000000   36.464592
1935.000000   36.251326
1936.000000   36.040172
1937.000000   35.831102
1938.000000   35.624089
1939.000000   35.419105
1940.000000   35.216125
1941.000000   35.015120
1942.000000   34.816067
1943.000000   34.618939
1944.000000   34.423711
1945.000000   34.230358
1946.000000   34.038858
1947.000000   33.849185
1948.000000   33.661316
1949.000000   33.475229
1950.000000   33.290900
1951.000000   33.108308
1952.000000   32.927431
1953.000000   32.748246
1954.000000   32.570734
1955.000000   32.394872
1956.000000   32.220641
1957.000000   32.048020
1958.000000   31.876990
1959.000000   31.707530
1960.000000   31.539622
1961.000000   31.373246
1962.000000   31.208384
1963.000000   31.045018
1964.000000   30.883129
1965.000000   30.722700
1966.000000   30.563713
1967.000000   30.406151
1968.000000   30.249997
1969.000000   30.095233
1970.000000   29.941845
1971.000000   29.789814
1972.000000   29.639126
1973.000000   29.489765
1974.000000   29.341715
1975.000000   29.194961
1976.000000   29.049487
1977.000000   28.905279
1978.000000   28.762323
1979.000000   28.620604
1980.000000   28.480107
1981.000000   28.340820
1982.000000   28.202727
1983.000000   28.065816
1984.000000   27.930073
1985.000000   27.795485
1986.000000   27.662039
1987.000000   27.529722
1988.000000   27.398521
1989.000000   27.268425
1990.000000   27.139421
1991.000000   27.011496
1992.000000   26.884639
1993.000000   26.758839
1994.000000   26.634083
1995.000000   26.510360
1996.000000   26.387659
1997.000000   26.265969
1998.000000   26.145278
1999.000000   26.025577
2000.000000   25.906855
2001.000000   25.789100
2002.000000   25.672303
2003.000000   25.556454
2004.000000   25.441541
2005.000000   25.327557
2006.000000   25.214490
2007.000000   25.102331
2008.000000   24.991070
2009.000000   24.880699
2010.000000   24.771208
2011.000000   24.662587
2012.000000   24.554828
2013.000000   24.447921
2014.000000   24.341859
2015.000000   24.236632
2016.000000   24.132232
2017.000000   24.028650
2018.000000   23.925879
2019.000000   23.823909
2020.000000   23.722733
2021.000000   23.622342
2022.000000   23.522730
2023.000000   23.423887
2024.000000   23.325807
2025.000000   23.228481
2026.000000   23.131903
2027.000000   23.036065
2028.000000   22.940959
2029.000000   22.846579
2030.000000   22.752917
2031.000000   22.659966
2032.000000   22.567719
2033.000000   22.476170
2034.000000   22.385311
2035.000000   22.295136
2036.000000   22.205639
2037.000000   22.116813
2038.000000   22.028651
2039.000000   21.941147
2040.000000   21.854295
2041.000000   21.768089
2042.000000   21.682522
2043.000000   21.597589
2044.000000   21.513284
2045.000000   21.429600
2046.000000   21.346531
2047.000000   21.264073
2048.000000   21.182219
2049.000000   21.100964
2050.000000   21.020303
2051.000000   20.940229
2052.000000   20.860737
2053.000000   20.781823
2054.000000   20.703480
2055.000000   20.625704
2056.000000   20.548489
2057.000000   20.471830
2058.000000   20.395723
2059.000000   20.320162
2060.000000   20.245142
2061.000000   20.170659
2062.000000   20.096708
2063.000000   20.023284
2064.000000   19.950382
2065.000000   19.877997
2066.000000   19.806126
2067.000000   19.734764
2068.000000   19.663905
2069.000000   19.593546
2070.000000   19.523683
2071.000000   19.454311
2072.000000   19.385425
2073.000000   19.317022
2074.000000   19.249097
2075.000000   19.181647
2076.000000   19.114666
2077.000000   19.048152
2078.000000   18.982101
2079.000000   18.916507
2080.000000   18.851368
2081.000000   18.786679
2082.000000   18.722437
2083.000000   18.658638
2084.000000   18.595278
2085.000000   18.532353
2086.000000   18.469861
2087.000000   18.407797
2088.000000   18.346158
2089.000000   18.284940
2090.000000   18.224139
2091.000000   18.163753
2092.000000   18.103778
2093.000000   18.044211
2094.000000   17.985048
2095.000000   17.926286
2096.000000   17.867921
2097.000000   17.809951
2098.000000   17.752373
2099.000000   17.695182
2100.000000   17.638377
2101.000000   17.581953
2102.000000   17.525909
2103.000000   17.470240
2104.000000   17.414945
2105.000000   17.360019
2106.000000   17.305460
2107.000000   17.251266
2108.000000   17.197433
2109.000000   17.143958
2110.000000   17.090839
2111.000000   17.038074
2112.000000   16.985658
2113.000000   16.933590
2114.000000   16.881866
2115.000000   16.830485
2116.000000   16.779444
2117.000000   16.728739
2118.000000   16.678369
2119.000000   16.628331
2120.000000   16.578622
2121.000000   16.529240
2122.000000   16.480182
2123.000000   16.431446
2124.000000   16.383030
2125.000000   16.334931
2126.000000   16.287147
2127.000000   16.239675
2128.000000   16.192514
2129.000000   16.145660
2130.000000   16.099112
2131.000000   16.052868
2132.000000   16.006925
2133.000000   15.961280
2134.000000   15.915932
2135.000000   15.870879
2136.000000   15.826119
2137.000000   15.781649
2138.000000   15.737467
2139.000000   15.693572
2140.000000   15.649961
2141.000000   15.606632
2142.000000   15.563583
2143.000000   15.520812
2144.000000   15.478318
2145.000000   15.436098
2146.000000   15.394150
2147.000000   15.352473
2148.000000   15.311064
2149.000000   15.269922
2150.000000   15.229046
2151.000000   15.188432
2152.000000   15.148079
2153.000000   15.107986
2154.000000   15.068150
2155.000000   15.028571
2156.000000   14.989246
2157.000000   14.950173
2158.000000   14.911351
2159.000000   14.872778
2160.000000   14.834452
2161.000000   14.796372
2162.000000   14.758536
2163.000000   14.720943
2164.000000   14.683591
2165.000000   14.646478
2166.000000   14.609602
2167.000000   14.572963
2168.000000   14.536558
2169.000000   14.500387
2170.000000   14.464447
2171.000000   14.428737
2172.000000   14.393256
2173.000000   14.358001
2174.000000   14.322973
2175.000000   14.288169
2176.000000   14.253587
2177.000000   14.219227
2178.000000   14.185087
2179.000000   14.151165
2180.000000   14.117460
2181.000000   14.083972
2182.000000   14.050698
2183.000000   14.017637
2184.000000   13.984788
2185.000000   13.952149
2186.000000   13.919720
2187.000000   13.887498
2188.000000   13.855484
2189.000000   13.823674
2190.000000   13.792069
2191.000000   13.760667
2192.000000   13.729466
2193.000000   13.698466
2194.000000   13.667666
2195.000000   13.637063
2196.000000   13.606657
2197.000000   13.576447
2198.000000   13.546432
2199.000000   13.516610
2200.000000   13.486981
2201.000000   13.457543
2202.000000   13.428294
2203.000000   13.399235
2204.000000   13.370364
2205.000000   13.341679
2206.000000   13.313180
2207.000000   13.284866
2208.000000   13.256736
2209.000000   13.228788
2210.000000   13.201022
2211.000000   13.173436
2212.000000   13.146030
2213.000000   13.118802
2214.000000   13.091752
2215.000000   13.064879
2216.000000   13.038181
2217.000000   13.011658
2218.000000   12.985308
2219.000000   12.959131
2220.000000   12.933126
2221.000000   12.907292
2222.000000   12.881627
2223.000000   12.856132
2224.000000   12.830805
2225.000000   12.805645
2226.000000   12.780651
2227.000000   12.755823
2228.000000   12.731160
2229.000000   12.706660
2230.000000   12.682323
2231.000000   12.658149
2232.000000   12.634135
2233.000000   12.610282
2234.000000   12.586588
2235.000000   12.563054
2236.000000   12.539677
2237.000000   12.516457
2238.000000   12.493394
2239.000000   12.470486
2240.000000   12.447733
2241.000000   12.425134
2242.000000   12.402689
2243.000000   12.380396
2244.000000   12.358254
2245.000000   12.336264
2246.000000   12.314425
2247.000000   12.292734
2248.000000   12.271193
2249.000000   12.249800
2250.000000   12.228554
2251.000000   12.207456
2252.000000   12.186503
2253.000000   12.165695
2254.000000   12.145033
2255.000000   12.124514
2256.000000   12.104139
2257.000000   12.083907
2258.000000   12.063817
2259.000000   12.043868
2260.000000   12.024060
2261.000000   12.004392
2262.000000   11.984864
2263.000000   11.965475
2264.000000   11.946224
2265.000000   11.927111
2266.000000   11.908135
2267.000000   11.889296
2268.000000   11.870592
2269.000000   11.852024
2270.000000   11.833591
2271.000000   11.815292
2272.000000   11.797127
2273.000000   11.779095
2274.000000   11.761195
2275.000000   11.743427
2276.000000   11.725791
2277.000000   11.708286
2278.000000   11.690911
2279.000000   11.673666
2280.000000   11.656550
2281.000000   11.639564
2282.000000   11.622705
2283.000000   11.605974
2284.000000   11.589371
2285.000000   11.572895
2286.000000   11.556545
2287.000000   11.540320
2288.000000   11.524221
2289.000000   11.508248
2290.000000   11.492398
2291.000000   11.476673
2292.000000   11.461071
2293.000000   11.445592
2294.000000   11.430235
2295.000000   11.415001
2296.000000   11.399889
2297.000000   11.384898
2298.000000   11.370028
2299.000000   11.355278
2300.000000   11.340648
2301.000000   11.326138
2302.000000   11.311747
2303.000000   11.297475
2304.000000   11.283322
2305.000000   11.269286
2306.000000   11.255368
2307.000000   11.241568
2308.000000   11.227884
2309.000000   11.214316
2310.000000   11.200865
2311.000000   11.187530
2312.000000   11.174309
2313.000000   11.161204
2314.000000   11.148214
2315.000000   11.135337
2316.000000   11.122575
2317.000000   11.109927
2318.000000   11.097391
2319.000000   11.084969
2320.000000   11.072659
2321.000000   11.060461
2322.000000   11.048376
2323.000000   11.036402
2324.000000   11.024539
2325.000000   11.012787
2326.000000   11.001147
2327.000000   10.989616
2328.000000   10.978196
2329.000000   10.966885
2330.000000   10.955684
2331.000000   10.944592
2332.000000   10.933609
2333.000000   10.922735
2334.000000   10.911969
2335.000000   10.901312
2336.000000   10.890762
2337.000000   10.880320
2338.000000   10.869985
2339.000000   10.859757
2340.000000   10.849637
2341.000000   10.839622
2342.000000   10.829714
2343.000000   10.819913
2344.000000   10.810217
2345.000000   10.800626
2346.000000   10.791142
2347.000000   10.781762
2348.000000   10.772487
2349.000000   10.763317
2350.000000   10.754252
2351.000000   10.745291
2352.000000   10.736434
2353.000000   10.727681
2354.000000   10.719032
2355.000000   10.710486
2356.000000   10.702044
2357.000000   10.693704
2358.000000   10.685468
2359.000000   10.677335
2360.000000   10.669304
2361.000000   10.661375
2362.000000   10.653549
2363.000000   10.645825
2364.000000   10.638203
2365.000000   10.630682
2366.000000   10.623263
2367.000000   10.615946
2368.000000   10.608730
2369.000000   10.601615
2370.000000   10.594601
2371.000000   10.587688
2372.000000   10.580876
2373.000000   10.574164
2374.000000   10.567553
2375.000000   10.561042
2376.000000   10.554632
2377.000000   10.548321
2378.000000   10.542111
2379.000000   10.536000
2380.000000   10.529989
2381.000000   10.524078
2382.000000   10.518267
2383.000000   10.512554
2384.000000   10.506942
2385.000000   10.501428
2386.000000   10.496014
2387.000000   10.490699
2388.000000   10.485483
2389.000000   10.480365
2390.000000   10.475347
2391.000000   10.470428
2392.000000   10.465607
2393.000000   10.460885
2394.000000   10.456261
2395.000000   10.451736
2396.000000   10.447310
2397.000000   10.442982
2398.000000   10.438752
2399.000000   10.434621
2400.000000   10.430588
2401.000000   10.426653
2402.000000   10.422816
2403.000000   10.419078
2404.000000   10.415438
2405.000000   10.411896
2406.000000   10.408452
2407.000000   10.405106
2408.000000   10.401858
2409.000000   10.398708
2410.000000   10.395657
2411.000000   10.392703
2412.000000   10.389848
2413.000000   10.387090
2414.000000   10.384431
2415.000000   10.381869
2416.000000   10.379406
2417.000000   10.377041
2418.000000   10.374774
2419.000000   10.372605
2420.000000   10.370534
2421.000000   10.368561
2422.000000   10.366687
2423.000000   10.364911
2424.000000   10.363233
2425.000000   10.361653
2426.000000   10.360172
2427.000000   10.358789
2428.000000   10.357505
2429.000000   10.356319
2430.000000   10.355232
2431.000000   10.354243
2432.000000   10.353354
2433.000000   10.352562
2434.000000   10.351870
2435.000000   10.351277
2436.000000   10.350783
2437.000000   10.350387
2438.000000   10.350091
2439.000000   10.349895
2440.000000   10.349797
2441.000000   10.349799
2442.000000   10.349901
2443.000000   10.350102
2444.000000   10.350403
2445.000000   10.350804
2446.000000   10.351305
2447.000000   10.351906
2448.000000   10.352607
2449.000000   10.353408
2450.000000   10.354310
2451.000000   10.355313
2452.000000   10.356416
2453.000000   10.357620
2454.000000   10.358926
2455.000000   10.360332
2456.000000   10.361840
2457.000000   10.363449
2458.000000   10.365160
2459.000000   10.366972
2460.000000   10.368887
2461.000000   10.370904
2462.000000   10.373023
2463.000000   10.375244
2464.000000   10.377568
2465.000000   10.379995
2466.000000   10.382526
2467.000000   10.385159
2468.000000   10.387896
2469.000000   10.390736
2470.000000   10.393680
2471.000000   10.396728
2472.000000   10.399881
2473.000000   10.403137
2474.000000   10.406499
2475.000000   10.409965
2476.000000   10.413537
2477.000000   10.417214
2478.000000   10.420996
2479.000000   10.424885
2480.000000   10.428879
2481.000000   10.432980
2482.000000   10.437187
2483.000000   10.441502
2484.000000   10.445923
2485.000000   10.450452
2486.000000   10.455088
2487.000000   10.459832
2488.000000   10.464685
2489.000000   10.469645
2490.000000   10.474715
2491.000000   10.479894
2492.000000   10.485182
2493.000000   10.490579
2494.000000   10.496087
2495.000000   10.501705
2496.000000   10.507433
2497.000000   10.513272
2498.000000   10.519223
2499.000000   10.525285
2500.000000   10.531459
2501.000000   10.537745
2502.000000   10.544144
2503.000000   10.550655
2504.000000   10.557280
2505.000000   10.564018
2506.000000   10.570871
2507.000000   10.577837
2508.000000   10.584919
2509.000000   10.592115
2510.000000   10.599427
2511.000000   10.606855
2512.000000   10.614399
2513.000000   10.622060
2514.000000   10.629837
2515.000000   10.637732
2516.000000   10.645745
2517.000000   10.653876
2518.000000   10.662126
2519.000000   10.670495
2520.000000   10.678984
2521.000000   10.687592
2522.000000   10.696321
2523.000000   10.705171
2524.000000   10.714142
2525.000000   10.723235
2526.000000   10.732450
2527.000000   10.741788
2528.000000   10.751249
2529.000000   10.760834
2530.000000   10.770543
2531.000000   10.780377
2532.000000   10.790336
2533.000000   10.800420
2534.000000   10.810631
2535.000000   10.820968
2536.000000   10.831433
2537.000000   10.842026
2538.000000   10.852746
2539.000000   10.863596
2540.000000   10.874575
2541.000000   10.885684
2542.000000   10.896923
2543.000000   10.908294
2544.000000   10.919796
2545.000000   10.931431
2546.000000   10.943198
2547.000000   10.955099
2548.000000   10.967134
2549.000000   10.979303
2550.000000   10.991608
2551.000000   11.004049
2552.000000   11.016626
2553.000000   11.029340
2554.000000   11.042192
2555.000000   11.055183
2556.000000   11.068313
2557.000000   11.081582
2558.000000   11.094992
2559.000000   11.108543
2560.000000   11.122236
2561.000000   11.136072
2562.000000   11.150050
2563.000000   11.164173
2564.000000   11.178440
2565.000000   11.192853
2566.000000   11.207412
2567.000000   11.222118
2568.000000   11.236971
2569.000000   11.251973
2570.000000   11.267124
2571.000000   11.282425
2572.000000   11.297877
2573.000000   11.313480
2574.000000   11.329236
2575.000000   11.345145
2576.000000   11.361207
2577.000000   11.377425
2578.000000   11.393798
2579.000000   11.410328
2580.000000   11.427015
2581.000000   11.443860
2582.000000   11.460865
2583.000000   11.478029
2584.000000   11.495354
2585.000000   11.512841
2586.000000   11.530491
2587.000000   11.548305
2588.000000   11.566283
2589.000000   11.584426
2590.000000   11.602736
2591.000000   11.621214
2592.000000   11.639860
2593.000000   11.658675
2594.000000   11.677661
2595.000000   11.696818
2596.000000   11.716148
2597.000000   11.735651
2598.000000   11.755329
2599.000000   11.775182
2600.000000   11.795212
2601.000000   11.815420
2602.000000   11.835806
2603.000000   11.856373
2604.000000   11.877120
2605.000000   11.898050
2606.000000   11.919163
2607.000000   11.940461
2608.000000   11.961944
2609.000000   11.983614
2610.000000   12.005471
2611.000000   12.027519
2612.000000   12.049756
2613.000000   12.072185
2614.000000   12.094807
2615.000000   12.117623
2616.000000   12.140635
2617.000000   12.163843
2618.000000   12.187250
2619.000000   12.210855
2620.000000   12.234661
2621.000000   12.258670
2622.000000   12.282881
2623.000000   12.307297
2624.000000   12.331920
2625.000000   12.356749
2626.000000   12.381788
2627.000000   12.407037
2628.000000   12.432498
2629.000000   12.458172
2630.000000   12.484061
2631.000000   12.510166
2632.000000   12.536488
2633.000000   12.563031
2634.000000   12.589793
2635.000000   12.616779
2636.000000   12.643988
2637.000000   12.671423
2638.000000   12.699085
2639.000000   12.726975
2640.000000   12.755097
2641.000000   12.783450
2642.000000   12.812037
2643.000000   12.840860
2644.000000   12.869920
2645.000000   12.899220
2646.000000   12.928760
2647.000000   12.958542
2648.000000   12.988569
2649.000000   13.018842
2650.000000   13.049364
2651.000000   13.080135
2652.000000   13.111158
2653.000000   13.142435
2654.000000   13.173968
2655.000000   13.205758
2656.000000   13.237808
2657.000000   13.270120
2658.000000   13.302695
2659.000000   13.335536
2660.000000   13.368645
2661.000000   13.402024
2662.000000   13.435675
2663.000000   13.469600
2664.000000   13.503802
2665.000000   13.538282
2666.000000   13.573043
2667.000000   13.608087
2668.000000   13.643416
2669.000000   13.679033
2670.000000   13.714940
2671.000000   13.751139
2672.000000   13.787633
2673.000000   13.824424
2674.000000   13.861515
2675.000000   13.898908
2676.000000   13.936605
2677.000000   13.974609
2678.000000   14.012923
2679.000000   14.051550
2680.000000   14.090491
2681.000000   14.129750
2682.000000   14.169329
2683.000000   14.209231
2684.000000   14.249458
2685.000000   14.290014
2686.000000   14.330902
2687.000000   14.372123
2688.000000   14.413682
2689.000000   14.455581
2690.000000   14.497822
2691.000000   14.540410
2692.000000   14.583347
2693.000000   14.626635
2694.000000   14.670279
2695.000000   14.714281
2696.000000   14.758645
2697.000000   14.803374
2698.000000   14.848470
2699.000000   14.893938
2700.000000   14.939780
2701.000000   14.986001
2702.000000   15.032603
2703.000000   15.079591
2704.000000   15.126966
2705.000000   15.174734
2706.000000   15.222898
2707.000000   15.271461
2708.000000   15.320427
2709.000000   15.369800
2710.000000   15.419583
2711.000000   15.469782
2712.000000   15.520398
2713.000000   15.571437
2714.000000   15.622903
2715.000000   15.674798
2716.000000   15.727129
2717.000000   15.779898
2718.000000   15.833110
2719.000000   15.886769
2720.000000   15.940880
2721.000000   15.995447
2722.000000   16.050475
2723.000000   16.105967
2724.000000   16.161929
2725.000000   16.218364
2726.000000   16.275279
2727.000000   16.332677
2728.000000   16.390564
2729.000000   16.448944
2730.000000   16.507822
2731.000000   16.567204
2732.000000   16.627093
2733.000000   16.687497
2734.000000   16.748419
2735.000000   16.809865
2736.000000   16.871840
2737.000000   16.934350
2738.000000   16.997401
2739.000000   17.060998
2740.000000   17.125146
2741.000000   17.189852
2742.000000   17.255121
2743.000000   17.320959
2744.000000   17.387373
2745.000000   17.454368
2746.000000   17.521950
2747.000000   17.590126
2748.000000   17.658902
2749.000000   17.728284
2750.000000   17.798280
2751.000000   17.868896
2752.000000   17.940137
2753.000000   18.012013
2754.000000   18.084528
2755.000000   18.157691
2756.000000   18.231508
2757.000000   18.305986
2758.000000   18.381134
2759.000000   18.456958
2760.000000   18.533466
2761.000000   18.610666
2762.000000   18.688565
2763.000000   18.767171
2764.000000   18.846493
2765.000000   18.926539
2766.000000   19.007316
2767.000000   19.088834
2768.000000   19.171100
2769.000000   19.254124
2770.000000   19.337914
2771.000000   19.422479
2772.000000   19.507829
2773.000000   19.593972
2774.000000   19.680917
2775.000000   19.768675
2776.000000   19.857255
2777.000000   19.946667
2778.000000   20.036920
2779.000000   20.128025
2780.000000   20.219992
2781.000000   20.312832
2782.000000   20.406554
2783.000000   20.501171
2784.000000   20.596693
2785.000000   20.693130
2786.000000   20.790495
2787.000000   20.888798
2788.000000   20.988052
2789.000000   21.088268
2790.000000   21.189459
2791.000000   21.291636
2792.000000   21.394812
2793.000000   21.499000
2794.000000   21.604213
2795.000000   21.710464
2796.000000   21.817766
2797.000000   21.926132
2798.000000   22.035577
2799.000000   22.146114
2800.000000   22.257758
2801.000000   22.370524
2802.000000   22.484425
2803.000000   22.599477
2804.000000   22.715696
2805.000000   22.833096
2806.000000   22.951694
2807.000000   23.071506
2808.000000   23.192548
2809.000000   23.314836
2810.000000   23.438389
2811.000000   23.563222
2812.000000   23.689354
2813.000000   23.816802
2814.000000   23.945585
2815.000000   24.075721
2816.000000   24.207230
2817.000000   24.340129
2818.000000   24.474440
2819.000000   24.610181
2820.000000   24.747374
2821.000000   24.886038
2822.000000   25.026195
2823.000000   25.167867
2824.000000   25.311075
2825.000000   25.455841
2826.000000   25.602189
2827.000000   25.750142
2828.000000   25.899722
2829.000000   26.050955
2830.000000   26.203864
2831.000000   26.358475
2832.000000   26.514813
2833.000000   26.672904
2834.000000   26.832775
2835.000000   26.994452
2836.000000   27.157964
2837.000000   27.323338
2838.000000   27.490603
2839.000000   27.659788
2840.000000   27.830923
2841.000000   28.004039
2842.000000   28.179166
2843.000000   28.356337
2844.000000   28.535584
2845.000000   28.716939
2846.000000   28.900436
2847.000000   29.086111
2848.000000   29.273998
2849.000000   29.464132
2850.000000   29.656551
2851.000000   29.851292
2852.000000   30.048394
2853.000000   30.247895
2854.000000   30.449835
2855.000000   30.654255
2856.000000   30.861197
2857.000000   31.070703
2858.000000   31.282817
2859.000000   31.497583
2860.000000   31.715047
2861.000000   31.935256
2862.000000   32.158256
2863.000000   32.384097
2864.000000   32.612828
2865.000000   32.844500
2866.000000   33.079165
2867.000000   33.316876
2868.000000   33.557688
2869.000000   33.801657
2870.000000   34.048839
2871.000000   34.299293
2872.000000   34.553079
2873.000000   34.810258
2874.000000   35.070893
2875.000000   35.335047
2876.000000   35.602787
2877.000000   35.874180
2878.000000   36.149295
2879.000000   36.428202
2880.000000   36.710974
2881.000000   36.997686
2882.000000   37.288412
2883.000000   37.583232
2884.000000   37.882226
2885.000000   38.185475
2886.000000   38.493063
2887.000000   38.805076
2888.000000   39.121605
2889.000000   39.442738
2890.000000   39.768569
2891.000000   40.099194
2892.000000   40.434712
2893.000000   40.775222
2894.000000   41.120829
2895.000000   41.471639
2896.000000   41.827761
2897.000000   42.189306
2898.000000   42.556392
2899.000000   42.929135
2900.000000   43.307657
2901.000000   43.692085
2902.000000   44.082545
2903.000000   44.479172
2904.000000   44.882100
2905.000000   45.291470
2906.000000   45.707426
2907.000000   46.130116
2908.000000   46.559692
2909.000000   46.996312
2910.000000   47.440137
2911.000000   47.891333
2912.000000   48.350073
2913.000000   48.816533
2914.000000   49.290895
2915.000000   49.773346
2916.000000   50.264079
2917.000000   50.763295
2918.000000   51.271199
2919.000000   51.788002
2920.000000   52.313924
2921.000000   52.849190
2922.000000   53.394033
2923.000000   53.948693
2924.000000   54.513420
2925.000000   55.088469
2926.000000   55.674104
2927.000000   56.270601
2928.000000   56.878241
2929.000000   57.497316
2930.000000   58.128130
2931.000000   58.770994
2932.000000   59.426232
2933.000000   60.094179
2934.000000   60.775179
2935.000000   61.469593
2936.000000   62.177791
2937.000000   62.900156
2938.000000   63.637088
2939.000000   64.388999
2940.000000   65.156316
2941.000000   65.939483
2942.000000   66.738959
2943.000000   67.555221
2944.000000   68.388765
2945.000000   69.240104
2946.000000   70.109770
2947.000000   70.998319
2948.000000   71.906325
2949.000000   72.834386
2950.000000   73.783124
2951.000000   74.753185
2952.000000   75.745241
2953.000000   76.759992
2954.000000   77.798165
2955.000000   78.860518
2956.000000   79.947840
2957.000000   81.060954
2958.000000   82.200717
2959.000000   83.368021
2960.000000   84.563798
2961.000000   85.789021
2962.000000   87.044703
2963.000000   88.331904
2964.000000   89.651730
2965.000000   91.005335
2966.000000   92.393928
2967.000000   93.818771
2968.000000   95.281186
2969.000000   96.782554
2970.000000   98.324322
2971.000000   99.908004
2972.000000  101.535190
2973.000000  103.207541
2974.000000  104.926803
2975.000000  106.694805
2976.000000  108.513468
2977.000000  110.384809
2978.000000  112.310944
2979.000000  114.294101
2980.000000  116.336618
2981.000000  118.440957
2982.000000  120.609708
2983.000000  122.845598
2984.000000  125.151499
2985.000000  127.530438
2986.000000  129.985608
2987.000000  132.520374
2988.000000  135.138292
2989.000000  137.843113
2990.000000  140.638803
2991.000000  143.529553
2992.000000  146.519797
2993.000000  149.614225
2994.000000  152.817805
2995.000000  156.135800
2996.000000  159.573788
2997.000000  163.137684
2998.000000  166.833767
2999.000000  170.668702
3000.000000  174.649571
3001.000000  178.783901
3002.000000  183.079700
3003.000000  187.545486
3004.000000  192.190334
3005.000000  197.023909
3006.000000  202.056515
3007.000000  207.299145
3008.000000  212.763527
3009.000000  218.462189
3010.000000  224.408512
3011.000000  230.616803
3012.000000  237.102361
3013.000000  243.881559
3014.000000  250.971924
3015.000000  258.392230
3016.000000  266.162592
3017.000000  274.304572
3018.000000  282.841292
3019.000000  291.797551
3020.000000  301.199956
3021.000000  311.077059
3022.000000  321.459497
3023.000000  332.380152
3024.000000  343.874306
3025.000000  355.979808
3026.000000  368.737250
3027.000000  382.190136
3028.000000  396.385060
3029.000000  411.371878
3030.000000  427.203863
3031.000000  443.937855
3032.000000  461.634376
3033.000000  480.357708
3034.000000  500.175923
3035.000000  521.160831
3036.000000  543.387837
3037.000000  566.935665
3038.000000  591.885914
3039.000000  618.322409
3040.000000  646.330271
3041.000000  675.994660
3042.000000  707.399096
3043.000000  740.623283
3044.000000  775.740317
3045.000000  812.813186
3046.000000  851.890434
3047.000000  893.000890
3048.000000  936.147364
3049.000000  981.299261
3050.000000 1028.384120
3051.000000 1077.278183
3052.000000 1127.796242
3053.000000 1179.681185
3054.000000 1232.593907
3055.000000 1286.104496
3056.000000 1339.685902
3057.000000 1392.711495
3058.000000 1444.458116
3059.000000 1494.116126
3060.000000 1540.807735
3061.000000 1583.614221
3062.000000 1621.611758
3063.000000 1653.914324
3064.000000 1679.720880
3065.000000 1698.362778
3066.000000 1709.346660
3067.000000 1712.387996
3068.000000 1707.431187
3069.000000 1694.653654
3070.000000 1674.453380
3071.000000 1647.421497
3072.000000 1614.303323
3073.000000 1575.952449
3074.000000 1533.282775
3075.000000 1487.222984
3076.000000 1438.676914
3077.000000 1388.492007
3078.000000 1337.436689
3079.000000 1286.186474
3080.000000 1235.317761
3081.000000 1185.307891
3082.000000 1136.539863
3083.000000 1089.310183
3084.000000 1043.838528
3085.000000 1000.278165
3086.000000  958.726346
3087.000000  919.234152
3088.000000  881.815455
3089.000000  846.454831
3090.000000  813.114388
3091.000000  781.739517
3092.000000  752.263670
3093.000000  724.612243
3094.000000  698.705695
3095.000000  674.462003
3096.000000  651.798574
3097.000000  630.633692
3098.000000  610.887599
3099.000000  592.483280
3100.000000  575.347003
3101.000000  559.408676
3102.000000  544.602062
3103.000000  530.864875
3104.000000  518.138804
3105.000000  506.369464
3106.000000  495.506308
3107.000000  485.502514
3108.000000  476.314839
3109.000000  467.903476
3110.000000  460.231897
3111.000000  453.266695
3112.000000  446.977436
3113.000000  441.336511
3114.000000  436.318998
3115.000000  431.902530
3116.000000  428.067180
3117.000000  424.795347
3118.000000  422.071662
3119.000000  419.882896
3120.000000  418.217888
3121.000000  417.067479
3122.000000  416.424454
3123.000000  416.283501
3124.000000  416.641181
3125.000000  417.495898
3126.000000  418.847894
3127.000000  420.699243
3128.000000  423.053861
3129.000000  425.917524
3130.000000  429.297893
3131.000000  433.204559
3132.000000  437.649083
3133.000000  442.645054
3134.000000  448.208157
3135.000000  454.356243
3136.000000  461.109413
3137.000000  468.490098
3138.000000  476.523157
3139.000000  485.235967
3140.000000  494.658518
3141.000000  504.823497
3142.000000  515.766379
3143.000000  527.525480
3144.000000  540.142010
3145.000000  553.660080
3146.000000  568.126665
3147.000000  583.591514
3148.000000  600.106967
3149.000000  617.727684
3150.000000  636.510230
3151.000000  656.512497
3152.000000  677.792925
3153.000000  700.409460
3154.000000  724.418224
3155.000000  749.871810
3156.000000  776.817165
3157.000000  805.293007
3158.000000  835.326707
3159.000000  866.930629
3160.000000  900.097914
3161.000000  934.797759
3162.000000  970.970291
3163.000000 1008.521243
3164.000000 1047.316702
3165.000000 1087.178362
3166.000000 1127.879777
3167.000000 1169.144247
3168.000000 1210.644972
3169.000000 1252.008117
3170.000000 1292.819247
3171.000000 1332.633352
3172.000000 1370.988278
3173.000000 1407.420933
3174.000000 1441.485185
3175.000000 1472.769982
3176.000000 1500.916158
3177.000000 1525.630440
3178.000000 1546.695648
3179.000000 1563.976638
3180.000000 1577.422200
3181.000000 1587.063615
3182.000000 1593.010861
3183.000000 1595.447389
3184.000000 1594.624128
3185.000000 1590.852987
3186.000000 1584.499756
3187.000000 1575.976128
3188.000000 1565.730566
3189.000000 1554.237941
3190.000000 1541.988137
3191.000000 1529.474130
3192.000000 1517.180204
3193.000000 1505.571032
3194.000000 1495.082263
3195.000000 1486.113032
3196.000000 1479.020575
3197.000000 1474.116868
3198.000000 1471.667007
3199.000000 1471.888908
3200.000000 1474.953864
3201.000000 1480.987474
3202.000000 1490.070568
3203.000000 1502.239830
3204.000000 1517.487960
3205.000000 1535.763369
3206.000000 1556.969534
3207.000000 1580.964307
3208.000000 1607.559570
3209.000000 1636.521762
3210.000000 1667.573793
3211.000000 1700.398894
3212.000000 1734.646760
3213.000000 1769.942186
3214.000000 1805.896034
3215.000000 1842.118062
3216.000000 1878.230756
3217.000000 1913.883082
3218.000000 1948.762911
3219.000000 1982.606941
3220.000000 2015.207187
3221.000000 2046.413442
3222.000000 2076.131603
3223.000000 2104.318195
3224.000000 2130.971818
3225.000000 2156.122563
3226.000000 2179.820613
3227.000000 2202.125269
3228.000000 2223.095498
3229.000000 2242.782857
3230.000000 2261.227217
3231.000000 2278.455306
3232.000000 2294.481702
3233.000000 2309.311599
3234.000000 2322.944597
3235.000000 2335.378753
3236.000000 2346.614330
3237.000000 2356.656828
3238.000000 2365.519033
3239.000000 2373.221859
3240.000000 2379.793731
3241.000000 2385.268225
3242.000000 2389.679695
3243.000000 2393.056793
3244.000000 2395.414085
3245.000000 2396.742332
3246.000000 2396.998381
3247.000000 2396.095782
3248.000000 2393.897344
3249.000000 2390.210628
3250.000000 2384.787163
3251.000000 2377.325835
3252.000000 2367.480655
3253.000000 2354.872945
3254.000000 2339.107758
3255.000000 2319.794189
3256.000000 2296.568815
3257.000000 2269.121043
3258.000000 2237.218509
3259.000000 2200.730164
3260.000000 2159.644436
3261.000000 2114.080023
3262.000000 2064.287603
3263.000000 2010.641819
3264.000000 1953.624204
3265.000000 1893.798942
3266.000000 1831.784154
3267.000000 1768.221811
3268.000000 1703.749127
3269.000000 1638.973758
3270.000000 1574.454256
3271.000000 1510.686419
3272.000000 1448.095403
3273.000000 1387.032939
3274.000000 1327.778689
3275.000000 1270.544646
3276.000000 1215.481547
3277.000000 1162.686400
3278.000000 1112.210387
3279.000000 1064.066631
3280.000000 1018.237466
3281.000000  974.680983
3282.000000  933.336774
3283.000000  894.130832
3284.000000  856.979653
3285.000000  821.793596
3286.000000  788.479589
3287.000000  756.943267
3288.000000  727.090626
3289.000000  698.829277
3290.000000  672.069368
3291.000000  646.724238
3292.000000  622.710863
3293.000000  599.950125
3294.000000  578.366960
3295.000000  557.890399
3296.000000  538.453535
3297.000000  519.993438
3298.000000  502.451029
3299.000000  485.770924
3300.000000  469.901262
3301.000000  454.793530
3302.000000  440.402369
3303.000000  426.685393
3304.000000  413.603007
3305.000000  401.118228
3306.000000  389.196514
3307.000000  377.805602
3308.000000  366.915353
3309.000000  356.497605
3310.000000  346.526039
3311.000000  336.976048
3312.000000  327.824617
3313.000000  319.050210
3314.000000  310.632671
3315.000000  302.553118
3316.000000  294.793864
3317.000000  287.338323
3318.000000  280.170940
3319.000000  273.277116
3320.000000  266.643142
3321.000000  260.256137
3322.000000  254.103994
3323.000000  248.175322
3324.000000  242.459403
3325.000000  236.946143
3326.000000  231.626029
3327.000000  226.490097
3328.000000  221.529886
3329.000000  216.737413
3330.000000  212.105140
3331.000000  207.625941
3332.000000  203.293083
3333.000000  199.100193
3334.000000  195.041242
3335.000000  191.110520
3336.000000  187.302617
3337.000000  183.612403
3338.000000  180.035015
3339.000000  176.565837
3340.000000  173.200487
3341.000000  169.934802
3342.000000  166.764825
3343.000000  163.686795
3344.000000  160.697135
3345.000000  157.792438
3346.000000  154.969462
3347.000000  152.225118
3348.000000  149.556463
3349.000000  146.960690
3350.000000  144.435120
3351.000000  141.977201
3352.000000  139.584492
3353.000000  137.254664
3354.000000  134.985492
3355.000000  132.774847
3356.000000  130.620696
3357.000000  128.521092
3358.000000  126.474172
3359.000000  124.478154
3360.000000  122.531329
3361.000000  120.632062
3362.000000  118.778785
3363.000000  116.969993
3364.000000  115.204245
3365.000000  113.480158
3366.000000  111.796404
3367.000000  110.151707
3368.000000  108.544844
3369.000000  106.974638
3370.000000  105.439958
3371.000000  103.939717
3372.000000  102.472871
3373.000000  101.038414
3374.000000   99.635379
3375.000000   98.262834
3376.000000   96.919882
3377.000000   95.605661
3378.000000   94.319338
3379.000000   93.060111
3380.000000   91.827209
3381.000000   90.619885
3382.000000   89.437421
3383.000000   88.279124
3384.000000   87.144325
3385.000000   86.032378
3386.000000   84.942660
3387.000000   83.874568
3388.000000   82.827522
3389.000000   81.800959
3390.000000   80.794336
3391.000000   79.807128
3392.000000   78.838829
3393.000000   77.888946
3394.000000   76.957005
3395.000000   76.042546
3396.000000   75.145126
3397.000000   74.264313
3398.000000   73.399691
3399.000000   72.550856
3400.000000   71.717417
3401.000000   70.898996
3402.000000   70.095225
3403.000000   69.305750
3404.000000   68.530224
3405.000000   67.768314
3406.000000   67.019695
3407.000000   66.284053
3408.000000   65.561082
3409.000000   64.850487
3410.000000   64.151981
3411.000000   63.465283
3412.000000   62.790123
3413.000000   62.126238
3414.000000   61.473373
3415.000000   60.831279
3416.000000   60.199716
3417.000000   59.578448
3418.000000   58.967248
3419.000000   58.365895
3420.000000   57.774173
3421.000000   57.191873
3422.000000   56.618791
3423.000000   56.054730
3424.000000   55.499496
3425.000000   54.952901
3426.000000   54.414764
3427.000000   53.884907
3428.000000   53.363157
3429.000000   52.849345
3430.000000   52.343308
3431.000000   51.844885
3432.000000   51.353922
3433.000000   50.870266
3434.000000   50.393770
3435.000000   49.924290
3436.000000   49.461686
3437.000000   49.005821
3438.000000   48.556562
3439.000000   48.113779
3440.000000   47.677344
3441.000000   47.247135
3442.000000   46.823031
3443.000000   46.404914
3444.000000   45.992669
3445.000000   45.586185
3446.000000   45.185352
3447.000000   44.790064
3448.000000   44.400215
3449.000000   44.015705
3450.000000   43.636435
3451.000000   43.262307
3452.000000   42.893226
3453.000000   42.529101
3454.000000   42.169841
3455.000000   41.815357
3456.000000   41.465564
3457.000000   41.120376
3458.000000   40.779713
3459.000000   40.443492
3460.000000   40.111636
3461.000000   39.784067
3462.000000   39.460711
3463.000000   39.141493
3464.000000   38.826342
3465.000000   38.515188
3466.000000   38.207961
3467.000000   37.904594
3468.000000   37.605021
3469.000000   37.309179
3470.000000   37.017003
3471.000000   36.728433
3472.000000   36.443407
3473.000000   36.161866
3474.000000   35.883753
3475.000000   35.609012
3476.000000   35.337585
3477.000000   35.069420
3478.000000   34.804462
3479.000000   34.542661
3480.000000   34.283964
3481.000000   34.028321
3482.000000   33.775685
3483.000000   33.526006
3484.000000   33.279238
3485.000000   33.035334
3486.000000   32.794250
3487.000000   32.555941
3488.000000   32.320363
3489.000000   32.087475
3490.000000   31.857234
3491.000000   31.629600
3492.000000   31.404533
3493.000000   31.181992
3494.000000   30.961941
3495.000000   30.744340
3496.000000   30.529153
3497.000000   30.316343
3498.000000   30.105875
3499.000000   29.897714
3500.000000   29.691825
