   0.000000   25.910886
   1.000000   26.716416
   2.000000   27.561498
   3.000000   28.447358
   4.000000   29.375076
   5.000000   30.345557
   6.000000   31.359517
   7.000000   32.417459
   8.000000   33.519665
   9.000000   34.666193
  10.000000   35.856878
  11.000000   37.091346
  12.000000   38.369021
  13.000000   39.689150
  14.000000   41.050806
  15.000000   42.452902
  16.000000   43.894170
  17.000000   45.373124
  18.000000   46.887988
  19.000000   48.436577
  20.000000   50.016144
  21.000000   51.623175
  22.000000   53.253169
  23.000000   54.900398
  24.000000   56.557677
  25.000000   58.216170
  26.000000   59.865270
  27.000000   61.492553
  28.000000   63.083856
  29.000000   64.623472
  30.000000   66.094486
  31.000000   67.479223
  32.000000   68.759811
  33.000000   69.918820
  34.000000   70.939931
  35.000000   71.808608
  36.000000   72.512712
  37.000000   73.043040
  38.000000   73.393733
  39.000000   73.562559
  40.000000   73.551036
  41.000000   73.364408
  42.000000   73.011449
  43.000000   72.504129
  44.000000   71.857142
  45.000000   71.087315
  46.000000   70.212967
  47.000000   69.253225
  48.000000   68.227382
  49.000000   67.154312
  50.000000   66.051993
  51.000000   64.937150
  52.000000   63.825022
  53.000000   62.729239
  54.000000   61.661808
  55.000000   60.633158
  56.000000   59.652243
  57.000000   58.726666
  58.000000   57.862806
  59.000000   57.065935
  60.000000   56.340314
  61.000000   55.689263
  62.000000   55.115206
  63.000000   54.619687
  64.000000   54.203374
  65.000000   53.866047
  66.000000   53.606569
  67.000000   53.422868
  68.000000   53.311913
  69.000000   53.269701
  70.000000   53.291262
  71.000000   53.370686
  72.000000   53.501181
  73.000000   53.675171
  74.000000   53.884434
  75.000000   54.120289
  76.000000   54.373830
  77.000000   54.636193
  78.000000   54.898859
  79.000000   55.153954
  80.000000   55.394537
  81.000000   55.614846
  82.000000   55.810479
  83.000000   55.978500
  84.000000   56.117454
  85.000000   56.227299
  86.000000   56.309270
  87.000000   56.365686
  88.000000   56.399732
  89.000000   56.415214
  90.000000   56.416320
  91.000000   56.407380
  92.000000   56.392632
  93.000000   56.376006
  94.000000   56.360909
  95.000000   56.350045
  96.000000   56.345269
  97.000000   56.347495
  98.000000   56.356676
  99.000000   56.371872
 100.000000   56.391396
 101.000000   56.413048
 102.000000   56.434407
 103.000000   56.453145
 104.000000   56.467349
 105.000000   56.475777
 106.000000   56.478060
 107.000000   56.474787
 108.000000   56.467502
 109.000000   56.458594
 110.000000   56.451126
 111.000000   56.448612
 112.000000   56.454784
 113.000000   56.473370
 114.000000   56.507915
 115.000000   56.561636
 116.000000   56.637345
 117.000000   56.737402
 118.000000   56.863725
 119.000000   57.017811
 120.000000   57.200787
 121.000000   57.413456
 122.000000   57.656345
 123.000000   57.929729
 124.000000   58.233639
 125.000000   58.567837
 126.000000   58.931767
 127.000000   59.324465
 128.000000   59.744452
 129.000000   60.189612
 130.000000   60.657079
 131.000000   61.143148
 132.000000   61.643232
 133.000000   62.151893
 134.000000   62.662941
 135.000000   63.169612
 136.000000   63.664804
 137.000000   64.141352
 138.000000   64.592310
 139.000000   65.011203
 140.000000   65.392243
 141.000000   65.730473
 142.000000   66.021864
 143.000000   66.263361
 144.000000   66.452910
 145.000000   66.589473
 146.000000   66.673048
 147.000000   66.704676
 148.000000   66.686424
 149.000000   66.621309
 150.000000   66.513155
 151.000000   66.366364
 152.000000   66.185610
 153.000000   65.975498
 154.000000   65.740215
 155.000000   65.483239
 156.000000   65.207128
 157.000000   64.913445
 158.000000   64.602805
 159.000000   64.275041
 160.000000   63.929469
 161.000000   63.565185
 162.000000   63.181377
 163.000000   62.777579
 164.000000   62.353858
 165.000000   61.910909
 166.000000   61.450054
 167.000000   60.973176
 168.000000   60.482607
 169.000000   59.980994
 170.000000   59.471189
 171.000000   58.956154
 172.000000   58.438913
 173.000000   57.922518
 174.000000   57.410031
 175.000000   56.904500
 176.000000   56.408901
 177.000000   55.926068
 178.000000   55.458576
 179.000000   55.008624
 180.000000   54.577911
 181.000000   54.167534
 182.000000   53.777927
 183.000000   53.408851
 184.000000   53.059430
 185.000000   52.728252
 186.000000   52.413499
 187.000000   52.113105
 188.000000   51.824904
 189.000000   51.546761
 190.000000   51.276646
 191.000000   51.012651
 192.000000   50.752947
 193.000000   50.495677
 194.000000   50.238821
 195.000000   49.980061
 196.000000   49.716664
 197.000000   49.445425
 198.000000   49.162686
 199.000000   48.864443
 200.000000   48.546537
 201.000000   48.204916
 202.000000   47.835956
 203.000000   47.436787
 204.000000   47.005610
 205.000000   46.541952
 206.000000   46.046833
 207.000000   45.522821
 208.000000   44.973967
 209.000000   44.405625
 210.000000   43.824188
 211.000000   43.236755
 212.000000   42.650785
 213.000000   42.073756
 214.000000   41.512866
 215.000000   40.974789
 216.000000   40.465489
 217.000000   39.990104
 218.000000   39.552878
 219.000000   39.157136
 220.000000   38.805294
 221.000000   38.498895
 222.000000   38.238655
 223.000000   38.024524
 224.000000   37.855760
 225.000000   37.731012
 226.000000   37.648419
 227.000000   37.605723
 228.000000   37.600404
 229.000000   37.629825
 230.000000   37.691388
 231.000000   37.782687
 232.000000   37.901651
 233.000000   38.046647
 234.000000   38.216542
 235.000000   38.410706
 236.000000   38.628947
 237.000000   38.871385
 238.000000   39.138263
 239.000000   39.429732
 240.000000   39.745602
 241.000000   40.085103
 242.000000   40.446661
 243.000000   40.827726
 244.000000   41.224645
 245.000000   41.632613
 246.000000   42.045710
 247.000000   42.457012
 248.000000   42.858804
 249.000000   43.242856
 250.000000   43.600778
 251.000000   43.924404
 252.000000   44.206188
 253.000000   44.439577
 254.000000   44.619311
 255.000000   44.741642
 256.000000   44.804432
 257.000000   44.807139
 258.000000   44.750683
 259.000000   44.637236
 260.000000   44.469936
 261.000000   44.252585
 262.000000   43.989358
 263.000000   43.684551
 264.000000   43.342396
 265.000000   42.966956
 266.000000   42.562095
 267.000000   42.131525
 268.000000   41.678896
 269.000000   41.207906
 270.000000   40.722408
 271.000000   40.226481
 272.000000   39.724448
 273.000000   39.220843
 274.000000   38.720322
 275.000000   38.227539
 276.000000   37.747003
 277.000000   37.282940
 278.000000   36.839175
 279.000000   36.419053
 280.000000   36.025397
 281.000000   35.660503
 282.000000   35.326177
 283.000000   35.023779
 284.000000   34.754285
 285.000000   34.518343
 286.000000   34.316306
 287.000000   34.148248
 288.000000   34.013950
 289.000000   33.912859
 290.000000   33.844034
 291.000000   33.806070
 292.000000   33.797030
 293.000000   33.814382
 294.000000   33.854956
 295.000000   33.914931
 296.000000   33.989868
 297.000000   34.074774
 298.000000   34.164221
 299.000000   34.252504
 300.000000   34.333834
 301.000000   34.402553
 302.000000   34.453354
 303.000000   34.481482
 304.000000   34.482913
 305.000000   34.454479
 306.000000   34.393941
 307.000000   34.300016
 308.000000   34.172355
 309.000000   34.011491
 310.000000   33.818769
 311.000000   33.596275
 312.000000   33.346754
 313.000000   33.073541
 314.000000   32.780480
 315.000000   32.471842
 316.000000   32.152221
 317.000000   31.826428
 318.000000   31.499359
 319.000000   31.175874
 320.000000   30.860670
 321.000000   30.558170
 322.000000   30.272435
 323.000000   30.007094
 324.000000   29.765310
 325.000000   29.549754
 326.000000   29.362610
 327.000000   29.205587
 328.000000   29.079936
 329.000000   28.986474
 330.000000   28.925603
 331.000000   28.897323
 332.000000   28.901238
 333.000000   28.936552
 334.000000   29.002067
 335.000000   29.096159
 336.000000   29.216775
 337.000000   29.361409
 338.000000   29.527103
 339.000000   29.710455
 340.000000   29.907639
 341.000000   30.114452
 342.000000   30.326377
 343.000000   30.538666
 344.000000   30.746437
 345.000000   30.944778
 346.000000   31.128858
 347.000000   31.294025
 348.000000   31.435909
 349.000000   31.550516
 350.000000   31.634321
 351.000000   31.684365
 352.000000   31.698358
 353.000000   31.674786
 354.000000   31.613007
 355.000000   31.513327
 356.000000   31.377050
 357.000000   31.206460
 358.000000   31.004766
 359.000000   30.775976
 360.000000   30.524726
 361.000000   30.256084
 362.000000   29.975330
 363.000000   29.687753
 364.000000   29.398466
 365.000000   29.112257
 366.000000   28.833481
 367.000000   28.565996
 368.000000   28.313128
 369.000000   28.077682
 370.000000   27.861963
 371.000000   27.667823
 372.000000   27.496718
 373.000000   27.349763
 374.000000   27.227797
 375.000000   27.131437
 376.000000   27.061134
 377.000000   27.017221
 378.000000   26.999952
 379.000000   27.009542
 380.000000   27.046197
 381.000000   27.110140
 382.000000   27.201632
 383.000000   27.320994
 384.000000   27.468616
 385.000000   27.644976
 386.000000   27.850648
 387.000000   28.086312
 388.000000   28.352759
 389.000000   28.650900
 390.000000   28.981772
 391.000000   29.346536
 392.000000   29.746486
 393.000000   30.183046
 394.000000   30.657768
 395.000000   31.172330
 396.000000   31.728529
 397.000000   32.328265
 398.000000   32.973531
 399.000000   33.666384
 400.000000   34.408915
 401.000000   35.203207
 402.000000   36.051283
 403.000000   36.955031
 404.000000   37.916124
 405.000000   38.935908
 406.000000   40.015278
 407.000000   41.154520
 408.000000   42.353133
 409.000000   43.609628
 410.000000   44.921297
 411.000000   46.283979
 412.000000   47.691805
 413.000000   49.136968
 414.000000   50.609511
 415.000000   52.097183
 416.000000   53.585372
 417.000000   55.057164
 418.000000   56.493542
 419.000000   57.873763
 420.000000   59.175907
 421.000000   60.377603
 422.000000   61.456896
 423.000000   62.393203
 424.000000   63.168299
 425.000000   63.767239
 426.000000   64.179151
 427.000000   64.397821
 428.000000   64.422005
 429.000000   64.255460
 430.000000   63.906669
 431.000000   63.388297
 432.000000   62.716434
 433.000000   61.909672
 434.000000   60.988123
 435.000000   59.972427
 436.000000   58.882857
 437.000000   57.738541
 438.000000   56.556877
 439.000000   55.353135
 440.000000   54.140251
 441.000000   52.928804
 442.000000   51.727136
 443.000000   50.541584
 444.000000   49.376775
 445.000000   48.235960
 446.000000   47.121335
 447.000000   46.034342
 448.000000   44.975920
 449.000000   43.946702
 450.000000   42.947166
 451.000000   41.977730
 452.000000   41.038815
 453.000000   40.130866
 454.000000   39.254362
 455.000000   38.409794
 456.000000   37.597642
 457.000000   36.818342
 458.000000   36.072251
 459.000000   35.359614
 460.000000   34.680536
 461.000000   34.034968
 462.000000   33.422695
 463.000000   32.843336
 464.000000   32.296353
 465.000000   31.781067
 466.000000   31.296676
 467.000000   30.842278
 468.000000   30.416896
 469.000000   30.019497
 470.000000   29.649017
 471.000000   29.304377
 472.000000   28.984504
 473.000000   28.688340
 474.000000   28.414856
 475.000000   28.163059
 476.000000   27.932004
 477.000000   27.720791
 478.000000   27.528576
 479.000000   27.354569
 480.000000   27.198036
 481.000000   27.058300
 482.000000   26.934741
 483.000000   26.826794
 484.000000   26.733951
 485.000000   26.655757
 486.000000   26.591809
 487.000000   26.541760
 488.000000   26.505309
 489.000000   26.482209
 490.000000   26.472259
 491.000000   26.475308
 492.000000   26.491251
 493.000000   26.520032
 494.000000   26.561639
 495.000000   26.616109
 496.000000   26.683521
 497.000000   26.764001
 498.000000   26.857722
 499.000000   26.964897
 500.000000   27.085787
 501.000000   27.220693
 502.000000   27.369957
 503.000000   27.533960
 504.000000   27.713119
 505.000000   27.907881
 506.000000   28.118720
 507.000000   28.346127
 508.000000   28.590599
 509.000000   28.852631
 510.000000   29.132696
 511.000000   29.431228
 512.000000   29.748596
 513.000000   30.085080
 514.000000   30.440835
 515.000000   30.815856
 516.000000   31.209939
 517.000000   31.622639
 518.000000   32.053227
 519.000000   32.500655
 520.000000   32.963525
 521.000000   33.440073
 522.000000   33.928172
 523.000000   34.425364
 524.000000   34.928916
 525.000000   35.435914
 526.000000   35.943384
 527.000000   36.448448
 528.000000   36.948480
 529.000000   37.441280
 530.000000   37.925209
 531.000000   38.399300
 532.000000   38.863307
 533.000000   39.317693
 534.000000   39.763549
 535.000000   40.202453
 536.000000   40.636279
 537.000000   41.066984
 538.000000   41.496371
 539.000000   41.925856
 540.000000   42.356255
 541.000000   42.787587
 542.000000   43.218907
 543.000000   43.648178
 544.000000   44.072179
 545.000000   44.486480
 546.000000   44.885471
 547.000000   45.262486
 548.000000   45.610017
 549.000000   45.920029
 550.000000   46.184364
 551.000000   46.395231
 552.000000   46.545713
 553.000000   46.630285
 554.000000   46.645247
 555.000000   46.589048
 556.000000   46.462453
 557.000000   46.268522
 558.000000   46.012418
 559.000000   45.701076
 560.000000   45.342753
 561.000000   44.946542
 562.000000   44.521881
 563.000000   44.078116
 564.000000   43.624129
 565.000000   43.168071
 566.000000   42.717182
 567.000000   42.277695
 568.000000   41.854817
 569.000000   41.452765
 570.000000   41.074840
 571.000000   40.723519
 572.000000   40.400571
 573.000000   40.107159
 574.000000   39.843955
 575.000000   39.611230
 576.000000   39.408947
 577.000000   39.236834
 578.000000   39.094449
 579.000000   38.981232
 580.000000   38.896554
 581.000000   38.839747
 582.000000   38.810135
 583.000000   38.807057
 584.000000   38.829884
 585.000000   38.878032
 586.000000   38.950972
 587.000000   39.048237
 588.000000   39.169429
 589.000000   39.314224
 590.000000   39.482373
 591.000000   39.673702
 592.000000   39.888121
 593.000000   40.125619
 594.000000   40.386265
 595.000000   40.670216
 596.000000   40.977710
 597.000000   41.309073
 598.000000   41.664719
 599.000000   42.045150
 600.000000   42.450962
 601.000000   42.882845
 602.000000   43.341587
 603.000000   43.828074
 604.000000   44.343299
 605.000000   44.888361
 606.000000   45.464470
 607.000000   46.072951
 608.000000   46.715247
 609.000000   47.392923
 610.000000   48.107667
 611.000000   48.861294
 612.000000   49.655745
 613.000000   50.493088
 614.000000   51.375508
 615.000000   52.305309
 616.000000   53.284896
 617.000000   54.316761
 618.000000   55.403463
 619.000000   56.547592
 620.000000   57.751732
 621.000000   59.018406
 622.000000   60.350013
 623.000000   61.748742
 624.000000   63.216476
 625.000000   64.754669
 626.000000   66.364215
 627.000000   68.045286
 628.000000   69.797164
 629.000000   71.618065
 630.000000   73.504959
 631.000000   75.453411
 632.000000   77.457452
 633.000000   79.509513
 634.000000   81.600435
 635.000000   83.719588
 636.000000   85.855116
 637.000000   87.994317
 638.000000   90.124154
 639.000000   92.231867
 640.000000   94.305643
 641.000000   96.335277
 642.000000   98.312754
 643.000000  100.232671
 644.000000  102.092447
 645.000000  103.892289
 646.000000  105.634918
 647.000000  107.325090
 648.000000  108.968957
 649.000000  110.573347
 650.000000  112.145013
 651.000000  113.689911
 652.000000  115.212527
 653.000000  116.715286
 654.000000  118.198058
 655.000000  119.657774
 656.000000  121.088195
 657.000000  122.479846
 658.000000  123.820192
 659.000000  125.094061
 660.000000  126.284366
 661.000000  127.373109
 662.000000  128.342623
 663.000000  129.176981
 664.000000  129.863444
 665.000000  130.393792
 666.000000  130.765407
 667.000000  130.981956
 668.000000  131.053614
 669.000000  130.996792
 670.000000  130.833416
 671.000000  130.589876
 672.000000  130.295740
 673.000000  129.982421
 674.000000  129.681888
 675.000000  129.425548
 676.000000  129.243346
 677.000000  129.163113
 678.000000  129.210160
 679.000000  129.407081
 680.000000  129.773720
 681.000000  130.327272
 682.000000  131.082438
 683.000000  132.051623
 684.000000  133.245117
 685.000000  134.671245
 686.000000  136.336446
 687.000000  138.245284
 688.000000  140.400360
 689.000000  142.802123
 690.000000  145.448586
 691.000000  148.334931
 692.000000  151.453023
 693.000000  154.790852
 694.000000  158.331924
 695.000000  162.054649
 696.000000  165.931785
 697.000000  169.930023
 698.000000  174.009795
 699.000000  178.125425
 700.000000  182.225728
 701.000000  186.255137
 702.000000  190.155424
 703.000000  193.868011
 704.000000  197.336778
 705.000000  200.511195
 706.000000  203.349527
 707.000000  205.821793
 708.000000  207.912141
 709.000000  209.620367
 710.000000  210.962365
 711.000000  211.969463
 712.000000  212.686719
 713.000000  213.170396
 714.000000  213.484894
 715.000000  213.699490
 716.000000  213.885156
 717.000000  214.111715
 718.000000  214.445473
 719.000000  214.947380
 720.000000  215.671715
 721.000000  216.665211
 722.000000  217.966520
 723.000000  219.605889
 724.000000  221.604948
 725.000000  223.976495
 726.000000  226.724222
 727.000000  229.842322
 728.000000  233.314972
 729.000000  237.115719
 730.000000  241.206816
 731.000000  245.538617
 732.000000  250.049157
 733.000000  254.664096
 734.000000  259.297209
 735.000000  263.851605
 736.000000  268.221850
 737.000000  272.297074
 738.000000  275.965042
 739.000000  279.117043
 740.000000  281.653269
 741.000000  283.488237
 742.000000  284.555698
 743.000000  284.812485
 744.000000  284.240824
 745.000000  282.848838
 746.000000  280.669182
 747.000000  277.756037
 748.000000  274.180863
 749.000000  270.027461
 750.000000  265.386896
 751.000000  260.352779
 752.000000  255.017256
 753.000000  249.467907
 754.000000  243.785588
 755.000000  238.043142
 756.000000  232.304825
 757.000000  226.626272
 758.000000  221.054814
 759.000000  215.630005
 760.000000  210.384256
 761.000000  205.343498
 762.000000  200.527839
 763.000000  195.952205
 764.000000  191.626966
 765.000000  187.558535
 766.000000  183.749968
 767.000000  180.201537
 768.000000  176.911283
 769.000000  173.875542
 770.000000  171.089415
 771.000000  168.547184
 772.000000  166.242665
 773.000000  164.169481
 774.000000  162.321266
 775.000000  160.691804
 776.000000  159.275112
 777.000000  158.065481
 778.000000  157.057493
 779.000000  156.246032
 780.000000  155.626283
 781.000000  155.193764
 782.000000  154.944362
 783.000000  154.874393
 784.000000  154.980689
 785.000000  155.260690
 786.000000  155.712546
 787.000000  156.335211
 788.000000  157.128522
 789.000000  158.093246
 790.000000  159.231108
 791.000000  160.544769
 792.000000  162.037778
 793.000000  163.714498
 794.000000  165.580004
 795.000000  167.639978
 796.000000  169.900585
 797.000000  172.368355
 798.000000  175.050062
 799.000000  177.952591
 800.000000  181.082807
 801.000000  184.447411
 802.000000  188.052769
 803.000000  191.904730
 804.000000  196.008417
 805.000000  200.367990
 806.000000  204.986403
 807.000000  209.865149
 808.000000  215.004027
 809.000000  220.400951
 810.000000  226.051851
 811.000000  231.950691
 812.000000  238.089673
 813.000000  244.459668
 814.000000  251.050903
 815.000000  257.853934
 816.000000  264.860880
 817.000000  272.066861
 818.000000  279.471552
 819.000000  287.080705
 820.000000  294.907490
 821.000000  302.973503
 822.000000  311.309307
 823.000000  319.954449
 824.000000  328.956934
 825.000000  338.372229
 826.000000  348.261894
 827.000000  358.691991
 828.000000  369.731390
 829.000000  381.450088
 830.000000  393.917594
 831.000000  407.201415
 832.000000  421.365595
 833.000000  436.469250
 834.000000  452.565009
 835.000000  469.697253
 836.000000  487.900048
 837.000000  507.194664
 838.000000  527.586605
 839.000000  549.062090
 840.000000  571.583978
 841.000000  595.087169
 842.000000  619.473629
 843.000000  644.607239
 844.000000  670.308842
 845.000000  696.351972
 846.000000  722.459898
 847.000000  748.304752
 848.000000  773.509564
 849.000000  797.654003
 850.000000  820.284455
 851.000000  840.928721
 852.000000  859.115084
 853.000000  874.394856
 854.000000  886.366800
 855.000000  894.701224
 856.000000  899.161224
 857.000000  899.618594
 858.000000  896.062430
 859.000000  888.599356
 860.000000  877.445382
 861.000000  862.910519
 862.000000  845.378129
 863.000000  825.281431
 864.000000  803.079637
 865.000000  779.235819
 866.000000  754.198051
 867.000000  728.384678
 868.000000  702.173963
 869.000000  675.897875
 870.000000  649.839462
 871.000000  624.233085
 872.000000  599.266775
 873.000000  575.085987
 874.000000  551.798176
 875.000000  529.477706
 876.000000  508.170738
 877.000000  487.899866
 878.000000  468.668352
 879.000000  450.463896
 880.000000  433.261926
 881.000000  417.028435
 882.000000  401.722419
 883.000000  387.297975
 884.000000  373.706112
 885.000000  360.896333
 886.000000  348.818017
 887.000000  337.421621
 888.000000  326.659705
 889.000000  316.487755
 890.000000  306.864801
 891.000000  297.753806
 892.000000  289.121821
 893.000000  280.939916
 894.000000  273.182928
 895.000000  265.829058
 896.000000  258.859374
 897.000000  252.257283
 898.000000  246.008003
 899.000000  240.098100
 900.000000  234.515081
 901.000000  229.247084
 902.000000  224.282636
 903.000000  219.610497
 904.000000  215.219559
 905.000000  211.098782
 906.000000  207.237173
 907.000000  203.623779
 908.000000  200.247684
 909.000000  197.098018
 910.000000  194.163958
 911.000000  191.434735
 912.000000  188.899631
 913.000000  186.547988
 914.000000  184.369216
 915.000000  182.352817
 916.000000  180.488429
 917.000000  178.765886
 918.000000  177.175313
 919.000000  175.707253
 920.000000  174.352811
 921.000000  173.103829
 922.000000  171.953063
 923.000000  170.894343
 924.000000  169.922711
 925.000000  169.034503
 926.000000  168.227367
 927.000000  167.500213
 928.000000  166.853099
 929.000000  166.287057
 930.000000  165.803886
 931.000000  165.405933
 932.000000  165.095876
 933.000000  164.876528
 934.000000  164.750686
 935.000000  164.721008
 936.000000  164.789943
 937.000000  164.959689
 938.000000  165.232193
 939.000000  165.609170
 940.000000  166.092131
 941.000000  166.682431
 942.000000  167.381305
 943.000000  168.189903
 944.000000  169.109309
 945.000000  170.140547
 946.000000  171.284580
 947.000000  172.542288
 948.000000  173.914451
 949.000000  175.401729
 950.000000  177.004652
 951.000000  178.723629
 952.000000  180.558980
 953.000000  182.510993
 954.000000  184.580009
 955.000000  186.766522
 956.000000  189.071293
 957.000000  191.495449
 958.000000  194.040560
 959.000000  196.708671
 960.000000  199.502265
 961.000000  202.424146
 962.000000  205.477251
 963.000000  208.664365
 964.000000  211.987786
 965.000000  215.448937
 966.000000  219.047970
 967.000000  222.783394
 968.000000  226.651771
 969.000000  230.647518
 970.000000  234.762865
 971.000000  238.988004
 972.000000  243.311450
 973.000000  247.720650
 974.000000  252.202803
 975.000000  256.745889
 976.000000  261.339815
 977.000000  265.977616
 978.000000  270.656575
 979.000000  275.379167
 980.000000  280.153713
 981.000000  284.994672
 982.000000  289.922540
 983.000000  294.963365
 984.000000  300.147947
 985.000000  305.510807
 986.000000  311.089044
 987.000000  316.921177
 988.000000  323.046078
 989.000000  329.502046
 990.000000  336.326081
 991.000000  343.553342
 992.000000  351.216811
 993.000000  359.347125
 994.000000  367.972568
 995.000000  377.119198
 996.000000  386.811115
 997.000000  397.070857
 998.000000  407.919936
 999.000000  419.379518
1000.000000  431.471245
1001.000000  444.218185
1002.000000  457.645868
1003.000000  471.783346
1004.000000  486.664190
1005.000000  502.327324
1006.000000  518.817586
1007.000000  536.185940
1008.000000  554.489255
1009.000000  573.789648
1010.000000  594.153381
1011.000000  615.649359
1012.000000  638.347284
1013.000000  662.315499
1014.000000  687.618569
1015.000000  714.314609
1016.000000  742.452362
1017.000000  772.068022
1018.000000  803.181829
1019.000000  835.794460
1020.000000  869.883336
1021.000000  905.398998
1022.000000  942.261766
1023.000000  980.358977
1024.000000 1019.543081
1025.000000 1059.630878
1026.000000 1100.404097
1027.000000 1141.611325
1028.000000 1182.971155
1029.000000 1224.176127
1030.000000 1264.896890
1031.000000 1304.785922
1032.000000 1343.480197
1033.000000 1380.602526
1034.000000 1415.761716
1035.000000 1448.552280
1036.000000 1478.554928
1037.000000 1505.339396
1038.000000 1528.471142
1039.000000 1547.523024
1040.000000 1562.092276
1041.000000 1571.822071
1042.000000 1576.425851
1043.000000 1575.711738
1044.000000 1569.603825
1045.000000 1558.157261
1046.000000 1541.564686
1047.000000 1520.152745
1048.000000 1494.368784
1049.000000 1464.759205
1050.000000 1431.941980
1051.000000 1396.576361
1052.000000 1359.332846
1053.000000 1320.865952
1054.000000 1281.791620
1055.000000 1242.670193
1056.000000 1203.995120
1057.000000 1166.186909
1058.000000 1129.591473
1059.000000 1094.481811
1060.000000 1061.061967
1061.000000 1029.472330
1062.000000  999.795510
1063.000000  972.062226
1064.000000  946.256880
1065.000000  922.322661
1066.000000  900.166185
1067.000000  879.661839
1068.000000  860.656065
1069.000000  842.971902
1070.000000  826.414074
1071.000000  810.774901
1072.000000  795.841127
1073.000000  781.401642
1074.000000  767.255795
1075.000000  753.221807
1076.000000  739.144600
1077.000000  724.902270
1078.000000  710.410506
1079.000000  695.624424
1080.000000  680.537621
1081.000000  665.178597
1082.000000  649.605037
1083.000000  633.896685
1084.000000  618.147633
1085.000000  602.458831
1086.000000  586.931446
1087.000000  571.661505
1088.000000  556.735995
1089.000000  542.230411
1090.000000  528.207580
1091.000000  514.717480
1092.000000  501.797769
1093.000000  489.474733
1094.000000  477.764410
1095.000000  466.673737
1096.000000  456.201596
1097.000000  446.339750
1098.000000  437.073670
1099.000000  428.383310
1100.000000  420.243899
1101.000000  412.626810
1102.000000  405.500571
1103.000000  398.832023
1104.000000  392.587629
1105.000000  386.734870
1106.000000  381.243646
1107.000000  376.087554
1108.000000  371.244914
1109.000000  366.699434
1110.000000  362.440412
1111.000000  358.462442
1112.000000  354.764654
1113.000000  351.349550
1114.000000  348.221548
1115.000000  345.385367
1116.000000  342.844377
1117.000000  340.599012
1118.000000  338.645350
1119.000000  336.973891
1120.000000  335.568594
1121.000000  334.406199
1122.000000  333.455855
1123.000000  332.679106
1124.000000  332.030263
1125.000000  331.457216
1126.000000  330.902721
1127.000000  330.306177
1128.000000  329.605858
1129.000000  328.741532
1130.000000  327.657300
1131.000000  326.304458
1132.000000  324.644110
1133.000000  322.649275
1134.000000  320.306251
1135.000000  317.615072
1136.000000  314.589031
1137.000000  311.253326
1138.000000  307.643028
1139.000000  303.800620
1140.000000  299.773393
1141.000000  295.610940
1142.000000  291.362969
1143.000000  287.077516
1144.000000  282.799633
1145.000000  278.570497
1146.000000  274.426904
1147.000000  270.401047
1148.000000  266.520511
1149.000000  262.808415
1150.000000  259.283649
1151.000000  255.961171
1152.000000  252.852346
1153.000000  249.965296
1154.000000  247.305276
1155.000000  244.875031
1156.000000  242.675163
1157.000000  240.704472
1158.000000  238.960269
1159.000000  237.438664
1160.000000  236.134798
1161.000000  235.043017
1162.000000  234.156977
1163.000000  233.469673
1164.000000  232.973368
1165.000000  232.659454
1166.000000  232.518218
1167.000000  232.538556
1168.000000  232.707655
1169.000000  233.010668
1170.000000  233.430436
1171.000000  233.947300
1172.000000  234.539047
1173.000000  235.181029
1174.000000  235.846497
1175.000000  236.507174
1176.000000  237.134044
1177.000000  237.698355
1178.000000  238.172780
1179.000000  238.532638
1180.000000  238.757110
1181.000000  238.830316
1182.000000  238.742160
1183.000000  238.488860
1184.000000  238.073097
1185.000000  237.503757
1186.000000  236.795315
1187.000000  235.966892
1188.000000  235.041101
1189.000000  234.042785
1190.000000  232.997761
1191.000000  231.931668
1192.000000  230.868983
1193.000000  229.832270
1194.000000  228.841646
1195.000000  227.914482
1196.000000  227.065295
1197.000000  226.305790
1198.000000  225.645035
1199.000000  225.089704
1200.000000  224.644377
1201.000000  224.311851
1202.000000  224.093474
1203.000000  223.989444
1204.000000  223.999108
1205.000000  224.121217
1206.000000  224.354159
1207.000000  224.696151
1208.000000  225.145391
1209.000000  225.700177
1210.000000  226.358986
1211.000000  227.120521
1212.000000  227.983732
1213.000000  228.947816
1214.000000  230.012201
1215.000000  231.176526
1216.000000  232.440616
1217.000000  233.804456
1218.000000  235.268179
1219.000000  236.832051
1220.000000  238.496462
1221.000000  240.261930
1222.000000  242.129097
1223.000000  244.098742
1224.000000  246.171783
1225.000000  248.349290
1226.000000  250.632494
1227.000000  253.022796
1228.000000  255.521779
1229.000000  258.131215
1230.000000  260.853075
1231.000000  263.689541
1232.000000  266.643011
1233.000000  269.716109
1234.000000  272.911696
1235.000000  276.232877
1236.000000  279.683012
1237.000000  283.265728
1238.000000  286.984927
1239.000000  290.844802
1240.000000  294.849846
1241.000000  299.004870
1242.000000  303.315017
1243.000000  307.785779
1244.000000  312.423016
1245.000000  317.232975
1246.000000  322.222313
1247.000000  327.398120
1248.000000  332.767945
1249.000000  338.339824
1250.000000  344.122313
1251.000000  350.124515
1252.000000  356.356121
1253.000000  362.827450
1254.000000  369.549484
1255.000000  376.533921
1256.000000  383.793221
1257.000000  391.340658
1258.000000  399.190384
1259.000000  407.357483
1260.000000  415.858047
1261.000000  424.709243
1262.000000  433.929398
1263.000000  443.538077
1264.000000  453.556185
1265.000000  464.006057
1266.000000  474.911574
1267.000000  486.298272
1268.000000  498.193467
1269.000000  510.626392
1270.000000  523.628332
1271.000000  537.232784
1272.000000  551.475608
1273.000000  566.395205
1274.000000  582.032689
1275.000000  598.432080
1276.000000  615.640488
1277.000000  633.708318
1278.000000  652.689466
1279.000000  672.641512
1280.000000  693.625916
1281.000000  715.708184
1282.000000  738.958028
1283.000000  763.449475
1284.000000  789.260940
1285.000000  816.475221
1286.000000  845.179407
1287.000000  875.464671
1288.000000  907.425900
1289.000000  941.161140
1290.000000  976.770786
1291.000000 1014.356482
1292.000000 1054.019640
1293.000000 1095.859529
1294.000000 1139.970838
1295.000000 1186.440632
1296.000000 1235.344633
1297.000000 1286.742730
1298.000000 1340.673691
1299.000000 1397.149034
1300.000000 1456.146094
1301.000000 1517.600374
1302.000000 1581.397363
1303.000000 1647.364125
1304.000000 1715.261062
1305.000000 1784.774462
1306.000000 1855.510544
1307.000000 1926.991874
1308.000000 1998.657132
1309.000000 2069.865189
1310.000000 2139.904338
1311.000000 2208.007240
1312.000000 2273.371623
1313.000000 2335.186179
1314.000000 2392.660360
1315.000000 2445.056150
1316.000000 2491.719441
1317.000000 2532.108551
1318.000000 2565.817676
1319.000000 2592.593649
1320.000000 2612.345149
1321.000000 2625.144232
1322.000000 2631.220669
1323.000000 2630.949987
1324.000000 2624.836296
1325.000000 2613.491121
1326.000000 2597.609508
1327.000000 2577.944784
1328.000000 2555.283382
1329.000000 2530.421157
1330.000000 2504.142442
1331.000000 2477.202800
1332.000000 2450.316016
1333.000000 2424.145414
1334.000000 2399.299176
1335.000000 2376.329075
1336.000000 2355.731885
1337.000000 2337.952719
1338.000000 2323.389614
1339.000000 2312.398798
1340.000000 2305.300149
1341.000000 2302.382505
1342.000000 2303.908514
1343.000000 2310.118828
1344.000000 2321.235523
1345.000000 2337.464674
1346.000000 2358.998115
1347.000000 2386.014391
1348.000000 2418.678953
1349.000000 2457.143588
1350.000000 2501.544995
1351.000000 2552.002365
1352.000000 2608.613686
1353.000000 2671.450418
1354.000000 2740.550098
1355.000000 2815.906406
1356.000000 2897.456221
1357.000000 2985.063335
1358.000000 3078.498650
1359.000000 3177.417022
1360.000000 3281.331317
1361.000000 3389.584794
1362.000000 3501.323531
1363.000000 3615.471376
1364.000000 3730.710546
1365.000000 3845.471717
1366.000000 3957.937809
1367.000000 4066.065677
1368.000000 4167.629269
1369.000000 4260.286307
1370.000000 4341.668148
1371.000000 4409.489300
1372.000000 4461.669438
1373.000000 4496.457492
1374.000000 4512.545079
1375.000000 4509.156183
1376.000000 4486.101844
1377.000000 4443.792674
1378.000000 4383.207531
1379.000000 4305.822588
1380.000000 4213.509966
1381.000000 4108.418302
1382.000000 3992.848390
1383.000000 3869.135749
1384.000000 3739.549150
1385.000000 3606.210556
1386.000000 3471.038484
1387.000000 3335.713906
1388.000000 3201.665865
1389.000000 3070.072883
1390.000000 2941.875987
1391.000000 2817.799394
1392.000000 2698.375507
1393.000000 2583.971554
1394.000000 2474.815964
1395.000000 2371.023157
1396.000000 2272.615995
1397.000000 2179.545506
1398.000000 2091.707785
1399.000000 2008.958183
1400.000000 1931.122965
1401.000000 1858.008734
1402.000000 1789.409878
1403.000000 1725.114346
1404.000000 1664.907999
1405.000000 1608.577787
1406.000000 1555.913951
1407.000000 1506.711437
1408.000000 1460.770677
1409.000000 1417.897862
1410.000000 1377.904844
1411.000000 1340.608747
1412.000000 1305.831411
1413.000000 1273.398734
1414.000000 1243.140036
1415.000000 1214.887518
1416.000000 1188.475942
1417.000000 1163.742608
1418.000000 1140.527757
1419.000000 1118.675439
1420.000000 1098.034910
1421.000000 1078.462527
1422.000000 1059.824040
1423.000000 1041.997134
1424.000000 1024.873967
1425.000000 1008.363424
1426.000000  992.392819
1427.000000  976.908771
1428.000000  961.877122
1429.000000  947.281828
1430.000000  933.122918
1431.000000  919.413716
1432.000000  906.177586
1433.000000  893.444532
1434.000000  881.247939
1435.000000  869.621693
1436.000000  858.597872
1437.000000  848.205078
1438.000000  838.467438
1439.000000  829.404211
1440.000000  821.029914
1441.000000  813.354857
1442.000000  806.385939
1443.000000  800.127597
1444.000000  794.582786
1445.000000  789.753883
1446.000000  785.643472
1447.000000  782.254939
1448.000000  779.592882
1449.000000  777.663339
1450.000000  776.473862
1451.000000  776.033476
1452.000000  776.352566
1453.000000  777.442717
1454.000000  779.316551
1455.000000  781.987554
1456.000000  785.469913
1457.000000  789.778360
1458.000000  794.928003
1459.000000  800.934151
1460.000000  807.812113
1461.000000  815.576977
1462.000000  824.243363
1463.000000  833.825170
1464.000000  844.335337
1465.000000  855.785639
1466.000000  868.186569
1467.000000  881.547335
1468.000000  895.876014
1469.000000  911.179890
1470.000000  927.465965
1471.000000  944.741622
1472.000000  963.015355
1473.000000  982.297440
1474.000000 1002.600409
1475.000000 1023.939150
1476.000000 1046.330499
1477.000000 1069.792227
1478.000000 1094.341433
1479.000000 1119.992433
1480.000000 1146.754348
1481.000000 1174.628688
1482.000000 1203.607221
1483.000000 1233.670443
1484.000000 1264.786872
1485.000000 1296.913234
1486.000000 1329.995475
1487.000000 1363.970330
1488.000000 1398.767009
1489.000000 1434.308467
1490.000000 1470.511749
1491.000000 1507.287000
1492.000000 1544.535036
1493.000000 1582.143727
1494.000000 1619.983854
1495.000000 1657.905468
1496.000000 1695.735994
1497.000000 1733.281356
1498.000000 1770.331161
1499.000000 1806.668506
1500.000000 1842.084302
1501.000000 1876.395197
1502.000000 1909.463445
1503.000000 1941.216444
1504.000000 1971.663443
1505.000000 2000.907039
1506.000000 2029.147706
1507.000000 2056.680497
1508.000000 2083.884124
1509.000000 2111.203560
1510.000000 2139.128046
1511.000000 2168.166598
1512.000000 2198.823070
1513.000000 2231.572386
1514.000000 2266.838973
1515.000000 2304.977882
1516.000000 2346.258586
1517.000000 2390.851156
1518.000000 2438.814460
1519.000000 2490.086126
1520.000000 2544.474292
1521.000000 2601.651547
1522.000000 2661.151890
1523.000000 2722.371919
1524.000000 2784.577723
1525.000000 2846.918960
1526.000000 2908.451335
1527.000000 2968.167959
1528.000000 3025.038995
1529.000000 3078.057584
1530.000000 3126.288563
1531.000000 3168.915233
1532.000000 3205.278776
1533.000000 3234.905197
1534.000000 3257.515920
1535.000000 3273.020368
1536.000000 3281.491530
1537.000000 3283.128198
1538.000000 3278.209624
1539.000000 3267.049398
1540.000000 3249.955280
1541.000000 3227.200422
1542.000000 3199.009429
1543.000000 3165.560121
1544.000000 3126.999372
1545.000000 3083.469210
1546.000000 3035.137912
1547.000000 2982.230316
1548.000000 2925.052032
1549.000000 2864.003627
1550.000000 2799.582799
1551.000000 2732.374683
1552.000000 2663.032311
1553.000000 2592.250485
1554.000000 2520.736860
1555.000000 2449.183788
1556.000000 2378.243763
1557.000000 2308.510250
1558.000000 2240.504681
1559.000000 2174.669503
1560.000000 2111.366561
1561.000000 2050.879735
1562.000000 1993.420668
1563.000000 1939.136454
1564.000000 1888.118334
1565.000000 1840.410649
1566.000000 1796.019502
1567.000000 1754.920788
1568.000000 1717.067372
1569.000000 1682.395339
1570.000000 1650.829318
1571.000000 1622.286919
1572.000000 1596.682367
1573.000000 1573.929439
1574.000000 1553.943791
1575.000000 1536.644778
1576.000000 1521.956866
1577.000000 1509.810695
1578.000000 1500.143881
1579.000000 1492.901605
1580.000000 1488.037047
1581.000000 1485.511698
1582.000000 1485.295583
1583.000000 1487.367437
1584.000000 1491.714834
1585.000000 1498.334302
1586.000000 1507.231430
1587.000000 1518.420985
1588.000000 1531.927030
1589.000000 1547.783070
1590.000000 1566.032211
1591.000000 1586.727336
1592.000000 1609.931309
1593.000000 1635.717175
1594.000000 1664.168386
1595.000000 1695.379010
1596.000000 1729.453922
1597.000000 1766.508970
1598.000000 1806.671065
1599.000000 1850.078193
1600.000000 1896.879288
1601.000000 1947.233930
1602.000000 2001.311800
1603.000000 2059.291823
1604.000000 2121.360904
1605.000000 2187.712156
1606.000000 2258.542477
1607.000000 2334.049350
1608.000000 2414.426686
1609.000000 2499.859525
1610.000000 2590.517424
1611.000000 2686.546322
1612.000000 2788.058747
1613.000000 2895.122251
1614.000000 3007.746065
1615.000000 3125.866138
1616.000000 3249.328911
1617.000000 3377.874515
1618.000000 3511.120421
1619.000000 3648.547018
1620.000000 3789.487068
1621.000000 3933.121349
1622.000000 4078.483080
1623.000000 4224.473671
1624.000000 4369.891835
1625.000000 4513.477127
1626.000000 4653.967333
1627.000000 4790.167136
1628.000000 4921.023232
1629.000000 5045.699130
1630.000000 5163.641690
1631.000000 5274.631456
1632.000000 5378.810228
1633.000000 5476.681932
1634.000000 5569.086164
1635.000000 5657.147065
1636.000000 5742.202833
1637.000000 5825.722560
1638.000000 5909.217252
1639.000000 5994.150942
1640.000000 6081.856278
1641.000000 6173.457279
1642.000000 6269.800568
1643.000000 6371.395521
1644.000000 6478.363502
1645.000000 6590.396686
1646.000000 6706.727718
1647.000000 6826.112465
1648.000000 6946.829109
1649.000000 7066.697589
1650.000000 7183.123447
1651.000000 7293.169386
1652.000000 7393.655921
1653.000000 7481.289512
1654.000000 7552.812784
1655.000000 7605.167473
1656.000000 7635.657422
1657.000000 7642.097205
1658.000000 7622.932388
1659.000000 7577.320186
1660.000000 7505.163888
1661.000000 7407.099950
1662.000000 7284.441893
1663.000000 7139.089240
1664.000000 6973.412031
1665.000000 6790.122072
1666.000000 6592.141341
1667.000000 6382.476338
1668.000000 6164.105185
1669.000000 5939.882144
1670.000000 5712.462233
1671.000000 5484.246743
1672.000000 5257.348933
1673.000000 5033.577942
1674.000000 4814.438132
1675.000000 4601.140658
1676.000000 4394.623969
1677.000000 4195.580172
1678.000000 4004.484588
1679.000000 3821.626307
1680.000000 3647.138118
1681.000000 3481.024619
1682.000000 3323.187789
1683.000000 3173.449642
1684.000000 3031.571807
1685.000000 2897.272141
1686.000000 2770.238531
1687.000000 2650.140173
1688.000000 2536.636619
1689.000000 2429.384897
1690.000000 2328.045005
1691.000000 2232.284052
1692.000000 2141.779282
1693.000000 2056.220199
1694.000000 1975.309975
1695.000000 1898.766287
1696.000000 1826.321722
1697.000000 1757.723843
1698.000000 1692.734999
1699.000000 1631.131959
1700.000000 1572.705411
1701.000000 1517.259373
1702.000000 1464.610551
1703.000000 1414.587668
1704.000000 1367.030774
1705.000000 1321.790571
1706.000000 1278.727741
1707.000000 1237.712305
1708.000000 1198.622999
1709.000000 1161.346687
1710.000000 1125.777800
1711.000000 1091.817809
1712.000000 1059.374735
1713.000000 1028.362681
1714.000000  998.701402
1715.000000  970.315904
1716.000000  943.136067
1717.000000  917.096303
1718.000000  892.135226
1719.000000  868.195358
1720.000000  845.222852
1721.000000  823.167235
1722.000000  801.981170
1723.000000  781.620238
1724.000000  762.042734
1725.000000  743.209479
1726.000000  725.083647
1727.000000  707.630604
1728.000000  690.817757
1729.000000  674.614419
1730.000000  658.991682
1731.000000  643.922296
1732.000000  629.380558
1733.000000  615.342217
1734.000000  601.784374
1735.000000  588.685395
1736.000000  576.024836
1737.000000  563.783358
1738.000000  551.942666
1739.000000  540.485437
1740.000000  529.395265
1741.000000  518.656603
1742.000000  508.254708
1743.000000  498.175596
1744.000000  488.405994
1745.000000  478.933298
1746.000000  469.745537
1747.000000  460.831329
1748.000000  452.179854
1749.000000  443.780818
1750.000000  435.624422
1751.000000  427.701338
1752.000000  420.002676
1753.000000  412.519968
1754.000000  405.245138
1755.000000  398.170483
1756.000000  391.288652
1757.000000  384.592629
1758.000000  378.075713
1759.000000  371.731502
1760.000000  365.553876
1761.000000  359.536986
1762.000000  353.675234
1763.000000  347.963266
1764.000000  342.395956
1765.000000  336.968397
1766.000000  331.675887
1767.000000  326.513920
1768.000000  321.478179
1769.000000  316.564521
1770.000000  311.768974
1771.000000  307.087726
1772.000000  302.517120
1773.000000  298.053640
1774.000000  293.693914
1775.000000  289.434698
1776.000000  285.272877
1777.000000  281.205456
1778.000000  277.229552
1779.000000  273.342394
1780.000000  269.541317
1781.000000  265.823752
1782.000000  262.187229
1783.000000  258.629367
1784.000000  255.147873
1785.000000  251.740537
1786.000000  248.405230
1787.000000  245.139897
1788.000000  241.942560
1789.000000  238.811307
1790.000000  235.744295
1791.000000  232.739746
1792.000000  229.795941
1793.000000  226.911222
1794.000000  224.083988
1795.000000  221.312692
1796.000000  218.595836
1797.000000  215.931978
1798.000000  213.319718
1799.000000  210.757707
1800.000000  208.244636
1801.000000  205.779242
1802.000000  203.360302
1803.000000  200.986631
1804.000000  198.657083
1805.000000  196.370548
1806.000000  194.125952
1807.000000  191.922253
1808.000000  189.758442
1809.000000  187.633542
1810.000000  185.546606
1811.000000  183.496714
1812.000000  181.482976
1813.000000  179.504528
1814.000000  177.560533
1815.000000  175.650177
1816.000000  173.772672
1817.000000  171.927251
1818.000000  170.113173
1819.000000  168.329715
1820.000000  166.576176
1821.000000  164.851876
1822.000000  163.156155
1823.000000  161.488368
1824.000000  159.847894
1825.000000  158.234124
1826.000000  156.646469
1827.000000  155.084356
1828.000000  153.547228
1829.000000  152.034542
1830.000000  150.545771
1831.000000  149.080401
1832.000000  147.637934
1833.000000  146.217885
1834.000000  144.819779
1835.000000  143.443157
1836.000000  142.087570
1837.000000  140.752583
1838.000000  139.437771
1839.000000  138.142719
1840.000000  136.867024
1841.000000  135.610294
1842.000000  134.372146
1843.000000  133.152206
1844.000000  131.950112
1845.000000  130.765508
1846.000000  129.598049
1847.000000  128.447399
1848.000000  127.313227
1849.000000  126.195215
1850.000000  125.093049
1851.000000  124.006425
1852.000000  122.935044
1853.000000  121.878616
1854.000000  120.836858
1855.000000  119.809494
1856.000000  118.796252
1857.000000  117.796870
1858.000000  116.811090
1859.000000  115.838660
1860.000000  114.879335
1861.000000  113.932875
1862.000000  112.999047
1863.000000  112.077620
1864.000000  111.168371
1865.000000  110.271082
1866.000000  109.385539
1867.000000  108.511533
1868.000000  107.648860
1869.000000  106.797320
1870.000000  105.956719
1871.000000  105.126866
1872.000000  104.307573
1873.000000  103.498660
1874.000000  102.699946
1875.000000  101.911258
1876.000000  101.132424
1877.000000  100.363278
1878.000000   99.603655
1879.000000   98.853396
1880.000000   98.112345
1881.000000   97.380347
1882.000000   96.657253
1883.000000   95.942916
1884.000000   95.237191
1885.000000   94.539938
1886.000000   93.851019
1887.000000   93.170299
1888.000000   92.497645
1889.000000   91.832928
1890.000000   91.176020
1891.000000   90.526798
1892.000000   89.885139
1893.000000   89.250924
1894.000000   88.624035
1895.000000   88.004358
1896.000000   87.391781
1897.000000   86.786193
1898.000000   86.187486
1899.000000   85.595554
1900.000000   85.010293
1901.000000   84.431602
1902.000000   83.859379
1903.000000   83.293529
1904.000000   82.733953
1905.000000   82.180559
1906.000000   81.633253
1907.000000   81.091945
1908.000000   80.556546
1909.000000   80.026968
1910.000000   79.503126
1911.000000   78.984936
1912.000000   78.472315
1913.000000   77.965183
1914.000000   77.463459
1915.000000   76.967065
1916.000000   76.475926
1917.000000   75.989965
1918.000000   75.509110
1919.000000   75.033287
1920.000000   74.562425
1921.000000   74.096454
1922.000000   73.635307
1923.000000   73.178914
1924.000000   72.727210
1925.000000   72.280131
1926.000000   71.837611
1927.000000   71.399588
1928.000000   70.966001
1929.000000   70.536789
1930.000000   70.111892
1931.000000   69.691252
1932.000000   69.274810
1933.000000   68.862512
1934.000000   68.454300
1935.000000   68.050121
1936.000000   67.649921
1937.000000   67.253646
1938.000000   66.861246
1939.000000   66.472668
1940.000000   66.087863
1941.000000   65.706782
1942.000000   65.329376
1943.000000   64.955597
1944.000000   64.585398
1945.000000   64.218733
1946.000000   63.855557
1947.000000   63.495825
1948.000000   63.139494
1949.000000   62.786519
1950.000000   62.436859
1951.000000   62.090472
1952.000000   61.747316
1953.000000   61.407351
1954.000000   61.070537
1955.000000   60.736835
1956.000000   60.406207
1957.000000   60.078614
1958.000000   59.754018
1959.000000   59.432384
1960.000000   59.113675
1961.000000   58.797856
1962.000000   58.484890
1963.000000   58.174745
1964.000000   57.867384
1965.000000   57.562776
1966.000000   57.260888
1967.000000   56.961685
1968.000000   56.665138
1969.000000   56.371214
1970.000000   56.079882
1971.000000   55.791111
1972.000000   55.504872
1973.000000   55.221135
1974.000000   54.939870
1975.000000   54.661050
1976.000000   54.384645
1977.000000   54.110628
1978.000000   53.838970
1979.000000   53.569646
1980.000000   53.302629
1981.000000   53.037891
1982.000000   52.775407
1983.000000   52.515152
1984.000000   52.257101
1985.000000   52.001228
1986.000000   51.747509
1987.000000   51.495920
1988.000000   51.246437
1989.000000   50.999037
1990.000000   50.753697
1991.000000   50.510394
1992.000000   50.269105
1993.000000   50.029809
1994.000000   49.792484
1995.000000   49.557107
1996.000000   49.323659
1997.000000   49.092117
1998.000000   48.862462
1999.000000   48.634673
2000.000000   48.408730
2001.000000   48.184613
2002.000000   47.962303
2003.000000   47.741780
2004.000000   47.523026
2005.000000   47.306021
2006.000000   47.090748
2007.000000   46.877188
2008.000000   46.665323
2009.000000   46.455136
2010.000000   46.246609
2011.000000   46.039724
2012.000000   45.834465
2013.000000   45.630815
2014.000000   45.428757
2015.000000   45.228276
2016.000000   45.029354
2017.000000   44.831976
2018.000000   44.636126
2019.000000   44.441789
2020.000000   44.248950
2021.000000   44.057592
2022.000000   43.867702
2023.000000   43.679265
2024.000000   43.492266
2025.000000   43.306691
2026.000000   43.122526
2027.000000   42.939756
2028.000000   42.758368
2029.000000   42.578349
2030.000000   42.399684
2031.000000   42.222361
2032.000000   42.046366
2033.000000   41.871687
2034.000000   41.698311
2035.000000   41.526225
2036.000000   41.355417
2037.000000   41.185874
2038.000000   41.017584
2039.000000   40.850535
2040.000000   40.684716
2041.000000   40.520115
2042.000000   40.356720
2043.000000   40.194519
2044.000000   40.033502
2045.000000   39.873658
2046.000000   39.714974
2047.000000   39.557441
2048.000000   39.401048
2049.000000   39.245784
2050.000000   39.091639
2051.000000   38.938601
2052.000000   38.786662
2053.000000   38.635811
2054.000000   38.486038
2055.000000   38.337333
2056.000000   38.189686
2057.000000   38.043088
2058.000000   37.897529
2059.000000   37.753001
2060.000000   37.609492
2061.000000   37.466995
2062.000000   37.325500
2063.000000   37.184999
2064.000000   37.045482
2065.000000   36.906940
2066.000000   36.769366
2067.000000   36.632750
2068.000000   36.497084
2069.000000   36.362360
2070.000000   36.228569
2071.000000   36.095704
2072.000000   35.963755
2073.000000   35.832716
2074.000000   35.702578
2075.000000   35.573333
2076.000000   35.444974
2077.000000   35.317493
2078.000000   35.190883
2079.000000   35.065136
2080.000000   34.940245
2081.000000   34.816202
2082.000000   34.693000
2083.000000   34.570633
2084.000000   34.449092
2085.000000   34.328372
2086.000000   34.208465
2087.000000   34.089364
2088.000000   33.971063
2089.000000   33.853555
2090.000000   33.736834
2091.000000   33.620892
2092.000000   33.505724
2093.000000   33.391323
2094.000000   33.277683
2095.000000   33.164797
2096.000000   33.052660
2097.000000   32.941265
2098.000000   32.830606
2099.000000   32.720677
2100.000000   32.611473
2101.000000   32.502988
2102.000000   32.395215
2103.000000   32.288149
2104.000000   32.181784
2105.000000   32.076116
2106.000000   31.971137
2107.000000   31.866843
2108.000000   31.763229
2109.000000   31.660289
2110.000000   31.558017
2111.000000   31.456409
2112.000000   31.355459
2113.000000   31.255162
2114.000000   31.155513
2115.000000   31.056507
2116.000000   30.958139
2117.000000   30.860404
2118.000000   30.763298
2119.000000   30.666815
2120.000000   30.570950
2121.000000   30.475699
2122.000000   30.381058
2123.000000   30.287021
2124.000000   30.193584
2125.000000   30.100742
2126.000000   30.008492
2127.000000   29.916828
2128.000000   29.825746
2129.000000   29.735242
2130.000000   29.645312
2131.000000   29.555950
2132.000000   29.467154
2133.000000   29.378919
2134.000000   29.291240
2135.000000   29.204114
2136.000000   29.117536
2137.000000   29.031503
2138.000000   28.946011
2139.000000   28.861055
2140.000000   28.776632
2141.000000   28.692738
2142.000000   28.609369
2143.000000   28.526521
2144.000000   28.444191
2145.000000   28.362375
2146.000000   28.281069
2147.000000   28.200270
2148.000000   28.119973
2149.000000   28.040176
2150.000000   27.960876
2151.000000   27.882067
2152.000000   27.803748
2153.000000   27.725914
2154.000000   27.648562
2155.000000   27.571689
2156.000000   27.495292
2157.000000   27.419367
2158.000000   27.343911
2159.000000   27.268920
2160.000000   27.194392
2161.000000   27.120324
2162.000000   27.046712
2163.000000   26.973553
2164.000000   26.900845
2165.000000   26.828583
2166.000000   26.756765
2167.000000   26.685389
2168.000000   26.614451
2169.000000   26.543947
2170.000000   26.473877
2171.000000   26.404235
2172.000000   26.335021
2173.000000   26.266230
2174.000000   26.197860
2175.000000   26.129908
2176.000000   26.062372
2177.000000   25.995249
2178.000000   25.928536
2179.000000   25.862230
2180.000000   25.796329
2181.000000   25.730831
2182.000000   25.665732
2183.000000   25.601030
2184.000000   25.536722
2185.000000   25.472807
2186.000000   25.409282
2187.000000   25.346143
2188.000000   25.283389
2189.000000   25.221018
2190.000000   25.159026
2191.000000   25.097411
2192.000000   25.036172
2193.000000   24.975306
2194.000000   24.914810
2195.000000   24.854683
2196.000000   24.794921
2197.000000   24.735523
2198.000000   24.676487
2199.000000   24.617809
2200.000000   24.559489
2201.000000   24.501524
2202.000000   24.443912
2203.000000   24.386651
2204.000000   24.329738
2205.000000   24.273171
2206.000000   24.216949
2207.000000   24.161070
2208.000000   24.105531
2209.000000   24.050330
2210.000000   23.995466
2211.000000   23.940936
2212.000000   23.886738
2213.000000   23.832871
2214.000000   23.779333
2215.000000   23.726122
2216.000000   23.673235
2217.000000   23.620671
2218.000000   23.568429
2219.000000   23.516506
2220.000000   23.464900
2221.000000   23.413610
2222.000000   23.362634
2223.000000   23.311970
2224.000000   23.261617
2225.000000   23.211572
2226.000000   23.161835
2227.000000   23.112402
2228.000000   23.063274
2229.000000   23.014447
2230.000000   22.965920
2231.000000   22.917693
2232.000000   22.869762
2233.000000   22.822127
2234.000000   22.774785
2235.000000   22.727736
2236.000000   22.680977
2237.000000   22.634508
2238.000000   22.588326
2239.000000   22.542431
2240.000000   22.496820
2241.000000   22.451492
2242.000000   22.406445
2243.000000   22.361679
2244.000000   22.317192
2245.000000   22.272981
2246.000000   22.229047
2247.000000   22.185387
2248.000000   22.142000
2249.000000   22.098885
2250.000000   22.056040
2251.000000   22.013464
2252.000000   21.971155
2253.000000   21.929113
2254.000000   21.887336
2255.000000   21.845822
2256.000000   21.804570
2257.000000   21.763580
2258.000000   21.722849
2259.000000   21.682377
2260.000000   21.642161
2261.000000   21.602202
2262.000000   21.562498
2263.000000   21.523047
2264.000000   21.483848
2265.000000   21.444901
2266.000000   21.406203
2267.000000   21.367754
2268.000000   21.329553
2269.000000   21.291598
2270.000000   21.253889
2271.000000   21.216424
2272.000000   21.179202
2273.000000   21.142221
2274.000000   21.105482
2275.000000   21.068982
2276.000000   21.032721
2277.000000   20.996698
2278.000000   20.960911
2279.000000   20.925360
2280.000000   20.890043
2281.000000   20.854959
2282.000000   20.820108
2283.000000   20.785489
2284.000000   20.751100
2285.000000   20.716940
2286.000000   20.683009
2287.000000   20.649305
2288.000000   20.615828
2289.000000   20.582576
2290.000000   20.549549
2291.000000   20.516746
2292.000000   20.484165
2293.000000   20.451806
2294.000000   20.419669
2295.000000   20.387751
2296.000000   20.356052
2297.000000   20.324572
2298.000000   20.293309
2299.000000   20.262263
2300.000000   20.231432
2301.000000   20.200816
2302.000000   20.170414
2303.000000   20.140226
2304.000000   20.110249
2305.000000   20.080485
2306.000000   20.050931
2307.000000   20.021587
2308.000000   19.992452
2309.000000   19.963525
2310.000000   19.934806
2311.000000   19.906294
2312.000000   19.877988
2313.000000   19.849888
2314.000000   19.821992
2315.000000   19.794300
2316.000000   19.766811
2317.000000   19.739524
2318.000000   19.712439
2319.000000   19.685556
2320.000000   19.658872
2321.000000   19.632388
2322.000000   19.606104
2323.000000   19.580017
2324.000000   19.554128
2325.000000   19.528436
2326.000000   19.502940
2327.000000   19.477640
2328.000000   19.452535
2329.000000   19.427625
2330.000000   19.402908
2331.000000   19.378384
2332.000000   19.354053
2333.000000   19.329914
2334.000000   19.305967
2335.000000   19.282210
2336.000000   19.258643
2337.000000   19.235266
2338.000000   19.212078
2339.000000   19.189078
2340.000000   19.166267
2341.000000   19.143643
2342.000000   19.121205
2343.000000   19.098954
2344.000000   19.076889
2345.000000   19.055009
2346.000000   19.033314
2347.000000   19.011803
2348.000000   18.990476
2349.000000   18.969333
2350.000000   18.948371
2351.000000   18.927593
2352.000000   18.906996
2353.000000   18.886580
2354.000000   18.866346
2355.000000   18.846291
2356.000000   18.826417
2357.000000   18.806722
2358.000000   18.787207
2359.000000   18.767870
2360.000000   18.748711
2361.000000   18.729730
2362.000000   18.710927
2363.000000   18.692300
2364.000000   18.673851
2365.000000   18.655577
2366.000000   18.637479
2367.000000   18.619557
2368.000000   18.601809
2369.000000   18.584237
2370.000000   18.566838
2371.000000   18.549614
2372.000000   18.532563
2373.000000   18.515686
2374.000000   18.498981
2375.000000   18.482449
2376.000000   18.466089
2377.000000   18.449901
2378.000000   18.433885
2379.000000   18.418040
2380.000000   18.402366
2381.000000   18.386863
2382.000000   18.371530
2383.000000   18.356367
2384.000000   18.341374
2385.000000   18.326550
2386.000000   18.311896
2387.000000   18.297410
2388.000000   18.283094
2389.000000   18.268945
2390.000000   18.254965
2391.000000   18.241153
2392.000000   18.227509
2393.000000   18.214032
2394.000000   18.200722
2395.000000   18.187580
2396.000000   18.174604
2397.000000   18.161794
2398.000000   18.149152
2399.000000   18.136675
2400.000000   18.124364
2401.000000   18.112219
2402.000000   18.100240
2403.000000   18.088426
2404.000000   18.076777
2405.000000   18.065293
2406.000000   18.053974
2407.000000   18.042820
2408.000000   18.031831
2409.000000   18.021006
2410.000000   18.010345
2411.000000   17.999848
2412.000000   17.989516
2413.000000   17.979347
2414.000000   17.969342
2415.000000   17.959501
2416.000000   17.949823
2417.000000   17.940309
2418.000000   17.930958
2419.000000   17.921770
2420.000000   17.912745
2421.000000   17.903884
2422.000000   17.895185
2423.000000   17.886650
2424.000000   17.878277
2425.000000   17.870067
2426.000000   17.862019
2427.000000   17.854135
2428.000000   17.846413
2429.000000   17.838853
2430.000000   17.831456
2431.000000   17.824222
2432.000000   17.817150
2433.000000   17.810240
2434.000000   17.803493
2435.000000   17.796908
2436.000000   17.790486
2437.000000   17.784226
2438.000000   17.778129
2439.000000   17.772194
2440.000000   17.766421
2441.000000   17.760811
2442.000000   17.755364
2443.000000   17.750079
2444.000000   17.744956
2445.000000   17.739997
2446.000000   17.735199
2447.000000   17.730565
2448.000000   17.726093
2449.000000   17.721785
2450.000000   17.717639
2451.000000   17.713656
2452.000000   17.709836
2453.000000   17.706179
2454.000000   17.702686
2455.000000   17.699356
2456.000000   17.696190
2457.000000   17.693187
2458.000000   17.690347
2459.000000   17.687672
2460.000000   17.685160
2461.000000   17.682813
2462.000000   17.680630
2463.000000   17.678611
2464.000000   17.676757
2465.000000   17.675067
2466.000000   17.673542
2467.000000   17.672182
2468.000000   17.670987
2469.000000   17.669958
2470.000000   17.669094
2471.000000   17.668396
2472.000000   17.667863
2473.000000   17.667497
2474.000000   17.667297
2475.000000   17.667264
2476.000000   17.667398
2477.000000   17.667698
2478.000000   17.668165
2479.000000   17.668800
2480.000000   17.669603
2481.000000   17.670574
2482.000000   17.671713
2483.000000   17.673020
2484.000000   17.674496
2485.000000   17.676141
2486.000000   17.677955
2487.000000   17.679939
2488.000000   17.682093
2489.000000   17.684416
2490.000000   17.686911
2491.000000   17.689576
2492.000000   17.692412
2493.000000   17.695419
2494.000000   17.698599
2495.000000   17.701950
2496.000000   17.705474
2497.000000   17.709170
2498.000000   17.713040
2499.000000   17.717083
2500.000000   17.721300
2501.000000   17.725691
2502.000000   17.730257
2503.000000   17.734998
2504.000000   17.739915
2505.000000   17.745007
2506.000000   17.750275
2507.000000   17.755720
2508.000000   17.761342
2509.000000   17.767142
2510.000000   17.773119
2511.000000   17.779275
2512.000000   17.785610
2513.000000   17.792123
2514.000000   17.798817
2515.000000   17.805691
2516.000000   17.812746
2517.000000   17.819982
2518.000000   17.827399
2519.000000   17.834999
2520.000000   17.842782
2521.000000   17.850748
2522.000000   17.858897
2523.000000   17.867231
2524.000000   17.875750
2525.000000   17.884454
2526.000000   17.893344
2527.000000   17.902420
2528.000000   17.911684
2529.000000   17.921135
2530.000000   17.930775
2531.000000   17.940603
2532.000000   17.950621
2533.000000   17.960829
2534.000000   17.971227
2535.000000   17.981817
2536.000000   17.992599
2537.000000   18.003574
2538.000000   18.014742
2539.000000   18.026103
2540.000000   18.037660
2541.000000   18.049411
2542.000000   18.061359
2543.000000   18.073503
2544.000000   18.085845
2545.000000   18.098385
2546.000000   18.111124
2547.000000   18.124062
2548.000000   18.137200
2549.000000   18.150540
2550.000000   18.164081
2551.000000   18.177825
2552.000000   18.191773
2553.000000   18.205924
2554.000000   18.220281
2555.000000   18.234843
2556.000000   18.249612
2557.000000   18.264589
2558.000000   18.279774
2559.000000   18.295167
2560.000000   18.310771
2561.000000   18.326586
2562.000000   18.342613
2563.000000   18.358852
2564.000000   18.375304
2565.000000   18.391972
2566.000000   18.408854
2567.000000   18.425953
2568.000000   18.443269
2569.000000   18.460804
2570.000000   18.478557
2571.000000   18.496531
2572.000000   18.514726
2573.000000   18.533143
2574.000000   18.551784
2575.000000   18.570648
2576.000000   18.589738
2577.000000   18.609054
2578.000000   18.628598
2579.000000   18.648370
2580.000000   18.668371
2581.000000   18.688603
2582.000000   18.709067
2583.000000   18.729764
2584.000000   18.750695
2585.000000   18.771860
2586.000000   18.793263
2587.000000   18.814902
2588.000000   18.836781
2589.000000   18.858899
2590.000000   18.881258
2591.000000   18.903860
2592.000000   18.926705
2593.000000   18.949795
2594.000000   18.973131
2595.000000   18.996715
2596.000000   19.020547
2597.000000   19.044629
2598.000000   19.068963
2599.000000   19.093549
2600.000000   19.118389
2601.000000   19.143485
2602.000000   19.168838
2603.000000   19.194448
2604.000000   19.220319
2605.000000   19.246450
2606.000000   19.272844
2607.000000   19.299501
2608.000000   19.326425
2609.000000   19.353615
2610.000000   19.381074
2611.000000   19.408802
2612.000000   19.436802
2613.000000   19.465076
2614.000000   19.493624
2615.000000   19.522448
2616.000000   19.551551
2617.000000   19.580932
2618.000000   19.610596
2619.000000   19.640542
2620.000000   19.670772
2621.000000   19.701289
2622.000000   19.732094
2623.000000   19.763189
2624.000000   19.794575
2625.000000   19.826255
2626.000000   19.858230
2627.000000   19.890501
2628.000000   19.923072
2629.000000   19.955943
2630.000000   19.989117
2631.000000   20.022596
2632.000000   20.056381
2633.000000   20.090474
2634.000000   20.124877
2635.000000   20.159594
2636.000000   20.194624
2637.000000   20.229971
2638.000000   20.265636
2639.000000   20.301622
2640.000000   20.337931
2641.000000   20.374564
2642.000000   20.411525
2643.000000   20.448814
2644.000000   20.486435
2645.000000   20.524390
2646.000000   20.562681
2647.000000   20.601309
2648.000000   20.640278
2649.000000   20.679590
2650.000000   20.719248
2651.000000   20.759252
2652.000000   20.799607
2653.000000   20.840314
2654.000000   20.881376
2655.000000   20.922795
2656.000000   20.964575
2657.000000   21.006717
2658.000000   21.049223
2659.000000   21.092098
2660.000000   21.135343
2661.000000   21.178960
2662.000000   21.222954
2663.000000   21.267326
2664.000000   21.312079
2665.000000   21.357216
2666.000000   21.402740
2667.000000   21.448653
2668.000000   21.494959
2669.000000   21.541661
2670.000000   21.588761
2671.000000   21.636263
2672.000000   21.684169
2673.000000   21.732482
2674.000000   21.781207
2675.000000   21.830345
2676.000000   21.879900
2677.000000   21.929876
2678.000000   21.980274
2679.000000   22.031100
2680.000000   22.082356
2681.000000   22.134045
2682.000000   22.186171
2683.000000   22.238737
2684.000000   22.291747
2685.000000   22.345205
2686.000000   22.399113
2687.000000   22.453476
2688.000000   22.508297
2689.000000   22.563580
2690.000000   22.619328
2691.000000   22.675546
2692.000000   22.732238
2693.000000   22.789406
2694.000000   22.847056
2695.000000   22.905190
2696.000000   22.963814
2697.000000   23.022930
2698.000000   23.082544
2699.000000   23.142660
2700.000000   23.203281
2701.000000   23.264412
2702.000000   23.326058
2703.000000   23.388222
2704.000000   23.450909
2705.000000   23.514124
2706.000000   23.577871
2707.000000   23.642155
2708.000000   23.706980
2709.000000   23.772352
2710.000000   23.838274
2711.000000   23.904752
2712.000000   23.971791
2713.000000   24.039396
2714.000000   24.107571
2715.000000   24.176322
2716.000000   24.245654
2717.000000   24.315572
2718.000000   24.386082
2719.000000   24.457188
2720.000000   24.528897
2721.000000   24.601213
2722.000000   24.674142
2723.000000   24.747691
2724.000000   24.821864
2725.000000   24.896668
2726.000000   24.972108
2727.000000   25.048190
2728.000000   25.124920
2729.000000   25.202305
2730.000000   25.280350
2731.000000   25.359062
2732.000000   25.438447
2733.000000   25.518512
2734.000000   25.599262
2735.000000   25.680706
2736.000000   25.762848
2737.000000   25.845697
2738.000000   25.929259
2739.000000   26.013540
2740.000000   26.098549
2741.000000   26.184291
2742.000000   26.270775
2743.000000   26.358008
2744.000000   26.445997
2745.000000   26.534750
2746.000000   26.624274
2747.000000   26.714577
2748.000000   26.805667
2749.000000   26.897552
2750.000000   26.990240
2751.000000   27.083739
2752.000000   27.178058
2753.000000   27.273205
2754.000000   27.369188
2755.000000   27.466017
2756.000000   27.563699
2757.000000   27.662245
2758.000000   27.761662
2759.000000   27.861961
2760.000000   27.963150
2761.000000   28.065239
2762.000000   28.168237
2763.000000   28.272155
2764.000000   28.377002
2765.000000   28.482787
2766.000000   28.589522
2767.000000   28.697217
2768.000000   28.805882
2769.000000   28.915527
2770.000000   29.026163
2771.000000   29.137802
2772.000000   29.250454
2773.000000   29.364131
2774.000000   29.478844
2775.000000   29.594604
2776.000000   29.711424
2777.000000   29.829315
2778.000000   29.948290
2779.000000   30.068361
2780.000000   30.189540
2781.000000   30.311840
2782.000000   30.435274
2783.000000   30.559855
2784.000000   30.685597
2785.000000   30.812513
2786.000000   30.940616
2787.000000   31.069921
2788.000000   31.200441
2789.000000   31.332192
2790.000000   31.465187
2791.000000   31.599443
2792.000000   31.734973
2793.000000   31.871793
2794.000000   32.009918
2795.000000   32.149365
2796.000000   32.290150
2797.000000   32.432289
2798.000000   32.575798
2799.000000   32.720695
2800.000000   32.866997
2801.000000   33.014720
2802.000000   33.163884
2803.000000   33.314506
2804.000000   33.466604
2805.000000   33.620197
2806.000000   33.775304
2807.000000   33.931945
2808.000000   34.090139
2809.000000   34.249905
2810.000000   34.411265
2811.000000   34.574239
2812.000000   34.738848
2813.000000   34.905114
2814.000000   35.073058
2815.000000   35.242702
2816.000000   35.414069
2817.000000   35.587182
2818.000000   35.762065
2819.000000   35.938740
2820.000000   36.117233
2821.000000   36.297568
2822.000000   36.479770
2823.000000   36.663865
2824.000000   36.849878
2825.000000   37.037837
2826.000000   37.227768
2827.000000   37.419698
2828.000000   37.613656
2829.000000   37.809670
2830.000000   38.007770
2831.000000   38.207984
2832.000000   38.410344
2833.000000   38.614879
2834.000000   38.821622
2835.000000   39.030603
2836.000000   39.241856
2837.000000   39.455415
2838.000000   39.671311
2839.000000   39.889581
2840.000000   40.110259
2841.000000   40.333382
2842.000000   40.558985
2843.000000   40.787106
2844.000000   41.017784
2845.000000   41.251056
2846.000000   41.486963
2847.000000   41.725546
2848.000000   41.966844
2849.000000   42.210901
2850.000000   42.457759
2851.000000   42.707462
2852.000000   42.960055
2853.000000   43.215584
2854.000000   43.474096
2855.000000   43.735637
2856.000000   44.000256
2857.000000   44.268005
2858.000000   44.538932
2859.000000   44.813090
2860.000000   45.090532
2861.000000   45.371313
2862.000000   45.655486
2863.000000   45.943110
2864.000000   46.234242
2865.000000   46.528941
2866.000000   46.827267
2867.000000   47.129282
2868.000000   47.435050
2869.000000   47.744635
2870.000000   48.058103
2871.000000   48.375521
2872.000000   48.696960
2873.000000   49.022490
2874.000000   49.352182
2875.000000   49.686112
2876.000000   50.024356
2877.000000   50.366990
2878.000000   50.714096
2879.000000   51.065753
2880.000000   51.422046
2881.000000   51.783061
2882.000000   52.148884
2883.000000   52.519606
2884.000000   52.895319
2885.000000   53.276116
2886.000000   53.662095
2887.000000   54.053355
2888.000000   54.449997
2889.000000   54.852126
2890.000000   55.259848
2891.000000   55.673273
2892.000000   56.092514
2893.000000   56.517686
2894.000000   56.948907
2895.000000   57.386299
2896.000000   57.829988
2897.000000   58.280101
2898.000000   58.736769
2899.000000   59.200129
2900.000000   59.670319
2901.000000   60.147482
2902.000000   60.631764
2903.000000   61.123317
2904.000000   61.622296
2905.000000   62.128859
2906.000000   62.643171
2907.000000   63.165401
2908.000000   63.695722
2909.000000   64.234312
2910.000000   64.781355
2911.000000   65.337041
2912.000000   65.901564
2913.000000   66.475125
2914.000000   67.057930
2915.000000   67.650192
2916.000000   68.252131
2917.000000   68.863971
2918.000000   69.485947
2919.000000   70.118298
2920.000000   70.761272
2921.000000   71.415125
2922.000000   72.080119
2923.000000   72.756528
2924.000000   73.444632
2925.000000   74.144720
2926.000000   74.857092
2927.000000   75.582057
2928.000000   76.319935
2929.000000   77.071056
2930.000000   77.835761
2931.000000   78.614402
2932.000000   79.407344
2933.000000   80.214965
2934.000000   81.037656
2935.000000   81.875819
2936.000000   82.729874
2937.000000   83.600253
2938.000000   84.487406
2939.000000   85.391797
2940.000000   86.313907
2941.000000   87.254236
2942.000000   88.213302
2943.000000   89.191642
2944.000000   90.189813
2945.000000   91.208393
2946.000000   92.247982
2947.000000   93.309204
2948.000000   94.392706
2949.000000   95.499161
2950.000000   96.629268
2951.000000   97.783755
2952.000000   98.963378
2953.000000  100.168924
2954.000000  101.401211
2955.000000  102.661092
2956.000000  103.949456
2957.000000  105.267227
2958.000000  106.615369
2959.000000  107.994888
2960.000000  109.406832
2961.000000  110.852296
2962.000000  112.332420
2963.000000  113.848397
2964.000000  115.401471
2965.000000  116.992945
2966.000000  118.624178
2967.000000  120.296592
2968.000000  122.011676
2969.000000  123.770986
2970.000000  125.576154
2971.000000  127.428887
2972.000000  129.330976
2973.000000  131.284297
2974.000000  133.290818
2975.000000  135.352604
2976.000000  137.471824
2977.000000  139.650755
2978.000000  141.891789
2979.000000  144.197443
2980.000000  146.570360
2981.000000  149.013327
2982.000000  151.529272
2983.000000  154.121284
2984.000000  156.792616
2985.000000  159.546697
2986.000000  162.387147
2987.000000  165.317784
2988.000000  168.342641
2989.000000  171.465980
2990.000000  174.692306
2991.000000  178.026384
2992.000000  181.473256
2993.000000  185.038261
2994.000000  188.727059
2995.000000  192.545644
2996.000000  196.500380
2997.000000  200.598016
2998.000000  204.845723
2999.000000  209.251116
3000.000000  213.822293
3001.000000  218.567870
3002.000000  223.497014
3003.000000  228.619489
3004.000000  233.945700
3005.000000  239.486740
3006.000000  245.254443
3007.000000  251.261442
3008.000000  257.521226
3009.000000  264.048210
3010.000000  270.857806
3011.000000  277.966498
3012.000000  285.391928
3013.000000  293.152982
3014.000000  301.269892
3015.000000  309.764334
3016.000000  318.659545
3017.000000  327.980437
3018.000000  337.753730
3019.000000  348.008083
3020.000000  358.774241
3021.000000  370.085185
3022.000000  381.976291
3023.000000  394.485497
3024.000000  407.653467
3025.000000  421.523772
3026.000000  436.143052
3027.000000  451.561189
3028.000000  467.831465
3029.000000  485.010693
3030.000000  503.159339
3031.000000  522.341587
3032.000000  542.625364
3033.000000  564.082280
3034.000000  586.787475
3035.000000  610.819338
3036.000000  636.259059
3037.000000  663.189967
3038.000000  691.696609
3039.000000  721.863501
3040.000000  753.773477
3041.000000  787.505554
3042.000000  823.132226
3043.000000  860.716087
3044.000000  900.305696
3045.000000  941.930588
3046.000000  985.595383
3047.000000 1031.272963
3048.000000 1078.896762
3049.000000 1128.352301
3050.000000 1179.468224
3051.000000 1232.007232
3052.000000 1285.657489
3053.000000 1340.025271
3054.000000 1394.629775
3055.000000 1448.901168
3056.000000 1502.182971
3057.000000 1553.739846
3058.000000 1602.771611
3059.000000 1648.433920
3060.000000 1689.865524
3061.000000 1726.221293
3062.000000 1756.709434
3063.000000 1780.630578
3064.000000 1797.415755
3065.000000 1806.659926
3066.000000 1808.147731
3067.000000 1801.868593
3068.000000 1788.019281
3069.000000 1766.993339
3070.000000 1739.358301
3071.000000 1705.822983
3072.000000 1667.198224
3073.000000 1624.354904
3074.000000 1578.183023
3075.000000 1529.554987
3076.000000 1479.295347
3077.000000 1428.158140
3078.000000 1376.812032
3079.000000 1325.832653
3080.000000 1275.701029
3081.000000 1226.806751
3082.000000 1179.454503
3083.000000 1133.872689
3084.000000 1090.223111
3085.000000 1048.610868
3086.000000 1009.093927
3087.000000  971.691960
3088.000000  936.394256
3089.000000  903.166602
3090.000000  871.957156
3091.000000  842.701339
3092.000000  815.325852
3093.000000  789.751925
3094.000000  765.897885
3095.000000  743.681165
3096.000000  723.019847
3097.000000  703.833809
3098.000000  686.045572
3099.000000  669.580892
3100.000000  654.369154
3101.000000  640.343615
3102.000000  627.441531
3103.000000  615.604193
3104.000000  604.776894
3105.000000  594.908855
3106.000000  585.953110
3107.000000  577.866380
3108.000000  570.608918
3109.000000  564.144365
3110.000000  558.439591
3111.000000  553.464547
3112.000000  549.192118
3113.000000  545.597987
3114.000000  542.660502
3115.000000  540.360562
3116.000000  538.681506
3117.000000  537.609015
3118.000000  537.131028
3119.000000  537.237667
3120.000000  537.921171
3121.000000  539.175848
3122.000000  540.998032
3123.000000  543.386051
3124.000000  546.340215
3125.000000  549.862802
3126.000000  553.958062
3127.000000  558.632234
3128.000000  563.893569
3129.000000  569.752362
3130.000000  576.221001
3131.000000  583.314025
3132.000000  591.048181
3133.000000  599.442510
3134.000000  608.518427
3135.000000  618.299811
3136.000000  628.813115
3137.000000  640.087465
3138.000000  652.154777
3139.000000  665.049869
3140.000000  678.810572
3141.000000  693.477841
3142.000000  709.095845
3143.000000  725.712051
3144.000000  743.377268
3145.000000  762.145658
3146.000000  782.074695
3147.000000  803.225048
3148.000000  825.660370
3149.000000  849.446968
3150.000000  874.653316
3151.000000  901.349377
3152.000000  929.605687
3153.000000  959.492151
3154.000000  991.076490
3155.000000 1024.422289
3156.000000 1059.586571
3157.000000 1096.616853
3158.000000 1135.547632
3159.000000 1176.396281
3160.000000 1219.158366
3161.000000 1263.802448
3162.000000 1310.264504
3163.000000 1358.442191
3164.000000 1408.189267
3165.000000 1459.310628
3166.000000 1511.558483
3167.000000 1564.630324
3168.000000 1618.169354
3169.000000 1671.768014
3170.000000 1724.975151
3171.000000 1777.307110
3172.000000 1828.262705
3173.000000 1877.341643
3174.000000 1924.065483
3175.000000 1967.999844
3176.000000 2008.776270
3177.000000 2046.112040
3178.000000 2079.826349
3179.000000 2109.851607
3180.000000 2136.239095
3181.000000 2159.158813
3182.000000 2178.893891
3183.000000 2195.830342
3184.000000 2210.443211
3185.000000 2223.280219
3186.000000 2234.943967
3187.000000 2246.073658
3188.000000 2257.327131
3189.000000 2269.363923
3190.000000 2282.829898
3191.000000 2298.343905
3192.000000 2316.486705
3193.000000 2337.792253
3194.000000 2362.741194
3195.000000 2391.756239
3196.000000 2425.198969
3197.000000 2463.367507
3198.000000 2506.494517
3199.000000 2554.745060
3200.000000 2608.213960
3201.000000 2666.922536
3202.000000 2730.814768
3203.000000 2799.753219
3204.000000 2873.515314
3205.000000 2951.790765
3206.000000 3034.181157
3207.000000 3120.202760
3208.000000 3209.293566
3209.000000 3300.825288
3210.000000 3394.120594
3211.000000 3488.475212
3212.000000 3583.183808
3213.000000 3677.567863
3214.000000 3771.003232
3215.000000 3862.944927
3216.000000 3952.946789
3217.000000 4040.674308
3218.000000 4125.909555
3219.000000 4208.548062
3220.000000 4288.588206
3221.000000 4366.114197
3222.000000 4441.274065
3223.000000 4514.254108
3224.000000 4585.251185
3225.000000 4654.444084
3226.000000 4721.965078
3227.000000 4787.872791
3228.000000 4852.127657
3229.000000 4914.571565
3230.000000 4974.913564
3231.000000 5032.723724
3232.000000 5087.437005
3233.000000 5138.368346
3234.000000 5184.738984
3235.000000 5225.712436
3236.000000 5260.436873
3237.000000 5288.089249
3238.000000 5307.915823
3239.000000 5319.263993
3240.000000 5321.601715
3241.000000 5314.522972
3242.000000 5297.740399
3243.000000 5271.068680
3244.000000 5234.404032
3245.000000 5187.705699
3246.000000 5130.984622
3247.000000 5064.302592
3248.000000 4987.782585
3249.000000 4901.628311
3250.000000 4806.148775
3251.000000 4701.782448
3252.000000 4589.115530
3253.000000 4468.889880
3254.000000 4341.997994
3255.000000 4209.464660
3256.000000 4072.416956
3257.000000 3932.045923
3258.000000 3789.564041
3259.000000 3646.162849
3260.000000 3502.974446
3261.000000 3361.039705
3262.000000 3221.284803
3263.000000 3084.506584
3264.000000 2951.366258
3265.000000 2822.390308
3266.000000 2697.977081
3267.000000 2578.407414
3268.000000 2463.857793
3269.000000 2354.414678
3270.000000 2250.088985
3271.000000 2150.829951
3272.000000 2056.537876
3273.000000 1967.075473
3274.000000 1882.277700
3275.000000 1801.960089
3276.000000 1725.925632
3277.000000 1653.970394
3278.000000 1585.887959
3279.000000 1521.472916
3280.000000 1460.523493
3281.000000 1402.843527
3282.000000 1348.243850
3283.000000 1296.543242
3284.000000 1247.569014
3285.000000 1201.157319
3286.000000 1157.153244
3287.000000 1115.410740
3288.000000 1075.792436
3289.000000 1038.169361
3290.000000 1002.420612
3291.000000  968.432980
3292.000000  936.100559
3293.000000  905.324340
3294.000000  876.011806
3295.000000  848.076534
3296.000000  821.437811
3297.000000  796.020257
3298.000000  771.753471
3299.000000  748.571697
3300.000000  726.413499
3301.000000  705.221469
3302.000000  684.941939
3303.000000  665.524722
3304.000000  646.922869
3305.000000  629.092438
3306.000000  611.992281
3307.000000  595.583853
3308.000000  579.831024
3309.000000  564.699912
3310.000000  550.158725
3311.000000  536.177617
3312.000000  522.728555
3313.000000  509.785188
3314.000000  497.322740
3315.000000  485.317898
3316.000000  473.748713
3317.000000  462.594512
3318.000000  451.835810
3319.000000  441.454230
3320.000000  431.432435
3321.000000  421.754057
3322.000000  412.403635
3323.000000  403.366554
3324.000000  394.628998
3325.000000  386.177893
3326.000000  378.000862
3327.000000  370.086185
3328.000000  362.422753
3329.000000  355.000035
3330.000000  347.808042
3331.000000  340.837293
3332.000000  334.078786
3333.000000  327.523970
3334.000000  321.164717
3335.000000  314.993298
3336.000000  309.002360
3337.000000  303.184905
3338.000000  297.534272
3339.000000  292.044110
3340.000000  286.708372
3341.000000  281.521290
3342.000000  276.477360
3343.000000  271.571334
3344.000000  266.798200
3345.000000  262.153170
3346.000000  257.631671
3347.000000  253.229332
3348.000000  248.941972
3349.000000  244.765595
3350.000000  240.696373
3351.000000  236.730645
3352.000000  232.864903
3353.000000  229.095788
3354.000000  225.420079
3355.000000  221.834691
3356.000000  218.336663
3357.000000  214.923155
3358.000000  211.591443
3359.000000  208.338910
3360.000000  205.163046
3361.000000  202.061437
3362.000000  199.031765
3363.000000  196.071802
3364.000000  193.179404
3365.000000  190.352512
3366.000000  187.589142
3367.000000  184.887388
3368.000000  182.245412
3369.000000  179.661446
3370.000000  177.133787
3371.000000  174.660795
3372.000000  172.240888
3373.000000  169.872540
3374.000000  167.554284
3375.000000  165.284701
3376.000000  163.062423
3377.000000  160.886130
3378.000000  158.754550
3379.000000  156.666451
3380.000000  154.620647
3381.000000  152.615991
3382.000000  150.651373
3383.000000  148.725723
3384.000000  146.838005
3385.000000  144.987219
3386.000000  143.172396
3387.000000  141.392600
3388.000000  139.646925
3389.000000  137.934494
3390.000000  136.254459
3391.000000  134.605998
3392.000000  132.988315
3393.000000  131.400641
3394.000000  129.842229
3395.000000  128.312354
3396.000000  126.810318
3397.000000  125.335440
3398.000000  123.887061
3399.000000  122.464544
3400.000000  121.067267
3401.000000  119.694632
3402.000000  118.346054
3403.000000  117.020967
3404.000000  115.718823
3405.000000  114.439089
3406.000000  113.181247
3407.000000  111.944794
3408.000000  110.729241
3409.000000  109.534116
3410.000000  108.358956
3411.000000  107.203315
3412.000000  106.066756
3413.000000  104.948857
3414.000000  103.849206
3415.000000  102.767403
3416.000000  101.703060
3417.000000  100.655797
3418.000000   99.625246
3419.000000   98.611050
3420.000000   97.612860
3421.000000   96.630336
3422.000000   95.663148
3423.000000   94.710974
3424.000000   93.773501
3425.000000   92.850424
3426.000000   91.941447
3427.000000   91.046279
3428.000000   90.164638
3429.000000   89.296251
3430.000000   88.440849
3431.000000   87.598171
3432.000000   86.767962
3433.000000   85.949976
3434.000000   85.143969
3435.000000   84.349706
3436.000000   83.566956
3437.000000   82.795497
3438.000000   82.035108
3439.000000   81.285575
3440.000000   80.546691
3441.000000   79.818252
3442.000000   79.100059
3443.000000   78.391919
3444.000000   77.693643
3445.000000   77.005044
3446.000000   76.325944
3447.000000   75.656166
3448.000000   74.995537
3449.000000   74.343890
3450.000000   73.701060
3451.000000   73.066886
3452.000000   72.441213
3453.000000   71.823886
3454.000000   71.214756
3455.000000   70.613676
3456.000000   70.020503
3457.000000   69.435098
3458.000000   68.857323
3459.000000   68.287044
3460.000000   67.724131
3461.000000   67.168455
3462.000000   66.619891
3463.000000   66.078317
3464.000000   65.543613
3465.000000   65.015661
3466.000000   64.494347
3467.000000   63.979558
3468.000000   63.471184
3469.000000   62.969118
3470.000000   62.473255
3471.000000   61.983490
3472.000000   61.499724
3473.000000   61.021857
3474.000000   60.549792
3475.000000   60.083435
3476.000000   59.622692
3477.000000   59.167472
3478.000000   58.717687
3479.000000   58.273249
3480.000000   57.834072
3481.000000   57.400072
3482.000000   56.971167
3483.000000   56.547277
3484.000000   56.128323
3485.000000   55.714227
3486.000000   55.304913
3487.000000   54.900306
3488.000000   54.500335
3489.000000   54.104927
3490.000000   53.714012
3491.000000   53.327522
3492.000000   52.945388
3493.000000   52.567545
3494.000000   52.193928
3495.000000   51.824473
3496.000000   51.459118
3497.000000   51.097800
3498.000000   50.740461
3499.000000   50.387041
3500.000000   50.037482
