   0.000000   24.348577
   1.000000   25.080154
   2.000000   25.837509
   3.000000   26.620826
   4.000000   27.430513
   5.000000   28.267295
   6.000000   29.132288
   7.000000   30.027055
   8.000000   30.953617
   9.000000   31.914425
  10.000000   32.912273
  11.000000   33.950161
  12.000000   35.031116
  13.000000   36.157961
  14.000000   37.333070
  15.000000   38.558085
  16.000000   39.833638
  17.000000   41.159064
  18.000000   42.532122
  19.000000   43.948741
  20.000000   45.402795
  21.000000   46.885935
  22.000000   48.387502
  23.000000   49.894543
  24.000000   51.391962
  25.000000   52.862830
  26.000000   54.288864
  27.000000   55.651067
  28.000000   56.930513
  29.000000   58.109206
  30.000000   59.170958
  31.000000   60.102194
  32.000000   60.892588
  33.000000   61.535479
  34.000000   62.028016
  35.000000   62.371022
  36.000000   62.568611
  37.000000   62.627616
  38.000000   62.556895
  39.000000   62.366597
  40.000000   62.067465
  41.000000   61.670232
  42.000000   61.185159
  43.000000   60.621743
  44.000000   59.988608
  45.000000   59.293552
  46.000000   58.543749
  47.000000   57.746024
  48.000000   56.907182
  49.000000   56.034305
  50.000000   55.134979
  51.000000   54.217422
  52.000000   53.290477
  53.000000   52.363496
  54.000000   51.446128
  55.000000   50.548049
  56.000000   49.678682
  57.000000   48.846928
  58.000000   48.060950
  59.000000   47.328028
  60.000000   46.654474
  61.000000   46.045613
  62.000000   45.505822
  63.000000   45.038591
  64.000000   44.646611
  65.000000   44.331852
  66.000000   44.095633
  67.000000   43.938665
  68.000000   43.861061
  69.000000   43.862323
  70.000000   43.941285
  71.000000   44.096048
  72.000000   44.323877
  73.000000   44.621101
  74.000000   44.982997
  75.000000   45.403694
  76.000000   45.876087
  77.000000   46.391789
  78.000000   46.941134
  79.000000   47.513238
  80.000000   48.096136
  81.000000   48.677003
  82.000000   49.242466
  83.000000   49.778995
  84.000000   50.273372
  85.000000   50.713203
  86.000000   51.087446
  87.000000   51.386911
  88.000000   51.604684
  89.000000   51.736429
  90.000000   51.780537
  91.000000   51.738102
  92.000000   51.612725
  93.000000   51.410190
  94.000000   51.138034
  95.000000   50.805084
  96.000000   50.420995
  97.000000   49.995835
  98.000000   49.539725
  99.000000   49.062557
 100.000000   48.573760
 101.000000   48.082104
 102.000000   47.595548
 103.000000   47.121087
 104.000000   46.664634
 105.000000   46.230918
 106.000000   45.823422
 107.000000   45.444363
 108.000000   45.094730
 109.000000   44.774379
 110.000000   44.482185
 111.000000   44.216241
 112.000000   43.974090
 113.000000   43.752961
 114.000000   43.549996
 115.000000   43.362435
 116.000000   43.187749
 117.000000   43.023700
 118.000000   42.868347
 119.000000   42.719995
 120.000000   42.577124
 121.000000   42.438304
 122.000000   42.302156
 123.000000   42.167336
 124.000000   42.032585
 125.000000   41.896819
 126.000000   41.759245
 127.000000   41.619496
 128.000000   41.477730
 129.000000   41.334694
 130.000000   41.191727
 131.000000   41.050689
 132.000000   40.913831
 133.000000   40.783612
 134.000000   40.662470
 135.000000   40.552576
 136.000000   40.455593
 137.000000   40.372443
 138.000000   40.303111
 139.000000   40.246503
 140.000000   40.200369
 141.000000   40.161305
 142.000000   40.124847
 143.000000   40.085655
 144.000000   40.037796
 145.000000   39.975095
 146.000000   39.891541
 147.000000   39.781711
 148.000000   39.641164
 149.000000   39.466774
 150.000000   39.256958
 151.000000   39.011780
 152.000000   38.732925
 153.000000   38.423565
 154.000000   38.088118
 155.000000   37.731976
 156.000000   37.361189
 157.000000   36.982181
 158.000000   36.601487
 159.000000   36.225536
 160.000000   35.860476
 161.000000   35.512047
 162.000000   35.185476
 163.000000   34.885412
 164.000000   34.615872
 165.000000   34.380206
 166.000000   34.181085
 167.000000   34.020487
 168.000000   33.899713
 169.000000   33.819409
 170.000000   33.779603
 171.000000   33.779761
 172.000000   33.818865
 173.000000   33.895505
 174.000000   34.007997
 175.000000   34.154516
 176.000000   34.333249
 177.000000   34.542545
 178.000000   34.781069
 179.000000   35.047931
 180.000000   35.342783
 181.000000   35.665867
 182.000000   36.018009
 183.000000   36.400544
 184.000000   36.815186
 185.000000   37.263838
 186.000000   37.748362
 187.000000   38.270312
 188.000000   38.830652
 189.000000   39.429470
 190.000000   40.065692
 191.000000   40.736823
 192.000000   41.438711
 193.000000   42.165357
 194.000000   42.908788
 195.000000   43.659012
 196.000000   44.404079
 197.000000   45.130272
 198.000000   45.822442
 199.000000   46.464512
 200.000000   47.040120
 201.000000   47.533392
 202.000000   47.929783
 203.000000   48.216916
 204.000000   48.385346
 205.000000   48.429154
 206.000000   48.346303
 207.000000   48.138735
 208.000000   47.812186
 209.000000   47.375755
 210.000000   46.841296
 211.000000   46.222702
 212.000000   45.535144
 213.000000   44.794362
 214.000000   44.016025
 215.000000   43.215214
 216.000000   42.406022
 217.000000   41.601285
 218.000000   40.812419
 219.000000   40.049352
 220.000000   39.320533
 221.000000   38.632996
 222.000000   37.992460
 223.000000   37.403459
 224.000000   36.869473
 225.000000   36.393071
 226.000000   35.976040
 227.000000   35.619505
 228.000000   35.324038
 229.000000   35.089743
 230.000000   34.916327
 231.000000   34.803163
 232.000000   34.749322
 233.000000   34.753605
 234.000000   34.814558
 235.000000   34.930469
 236.000000   35.099365
 237.000000   35.318992
 238.000000   35.586784
 239.000000   35.899831
 240.000000   36.254826
 241.000000   36.648012
 242.000000   37.075129
 243.000000   37.531352
 244.000000   38.011238
 245.000000   38.508691
 246.000000   39.016938
 247.000000   39.528539
 248.000000   40.035440
 249.000000   40.529067
 250.000000   41.000489
 251.000000   41.440634
 252.000000   41.840572
 253.000000   42.191841
 254.000000   42.486788
 255.000000   42.718911
 256.000000   42.883130
 257.000000   42.975984
 258.000000   42.995711
 259.000000   42.942196
 260.000000   42.816810
 261.000000   42.622170
 262.000000   42.361839
 263.000000   42.040036
 264.000000   41.661379
 265.000000   41.230695
 266.000000   40.752901
 267.000000   40.232965
 268.000000   39.675915
 269.000000   39.086888
 270.000000   38.471181
 271.000000   37.834286
 272.000000   37.181903
 273.000000   36.519904
 274.000000   35.854261
 275.000000   35.190946
 276.000000   34.535811
 277.000000   33.894459
 278.000000   33.272134
 279.000000   32.673619
 280.000000   32.103167
 281.000000   31.564467
 282.000000   31.060623
 283.000000   30.594175
 284.000000   30.167126
 285.000000   29.780990
 286.000000   29.436836
 287.000000   29.135343
 288.000000   28.876841
 289.000000   28.661349
 290.000000   28.488598
 291.000000   28.358041
 292.000000   28.268850
 293.000000   28.219897
 294.000000   28.209718
 295.000000   28.236465
 296.000000   28.297844
 297.000000   28.391043
 298.000000   28.512661
 299.000000   28.658634
 300.000000   28.824172
 301.000000   29.003727
 302.000000   29.190987
 303.000000   29.378927
 304.000000   29.559918
 305.000000   29.725912
 306.000000   29.868696
 307.000000   29.980216
 308.000000   30.052954
 309.000000   30.080322
 310.000000   30.057042
 311.000000   29.979471
 312.000000   29.845819
 313.000000   29.656253
 314.000000   29.412851
 315.000000   29.119426
 316.000000   28.781241
 317.000000   28.404639
 318.000000   27.996650
 319.000000   27.564596
 320.000000   27.115739
 321.000000   26.656994
 322.000000   26.194708
 323.000000   25.734524
 324.000000   25.281300
 325.000000   24.839098
 326.000000   24.411204
 327.000000   24.000188
 328.000000   23.607977
 329.000000   23.235934
 330.000000   22.884946
 331.000000   22.555502
 332.000000   22.247768
 333.000000   21.961651
 334.000000   21.696853
 335.000000   21.452920
 336.000000   21.229280
 337.000000   21.025271
 338.000000   20.840167
 339.000000   20.673196
 340.000000   20.523556
 341.000000   20.390427
 342.000000   20.272977
 343.000000   20.170380
 344.000000   20.081815
 345.000000   20.006483
 346.000000   19.943608
 347.000000   19.892450
 348.000000   19.852307
 349.000000   19.822516
 350.000000   19.802458
 351.000000   19.791549
 352.000000   19.789231
 353.000000   19.794971
 354.000000   19.808244
 355.000000   19.828528
 356.000000   19.855305
 357.000000   19.888065
 358.000000   19.926317
 359.000000   19.969606
 360.000000   20.017546
 361.000000   20.069843
 362.000000   20.126324
 363.000000   20.186964
 364.000000   20.251899
 365.000000   20.321432
 366.000000   20.396027
 367.000000   20.476294
 368.000000   20.562959
 369.000000   20.656837
 370.000000   20.758798
 371.000000   20.869733
 372.000000   20.990531
 373.000000   21.122060
 374.000000   21.265149
 375.000000   21.420589
 376.000000   21.589134
 377.000000   21.771510
 378.000000   21.968432
 379.000000   22.180622
 380.000000   22.408831
 381.000000   22.653861
 382.000000   22.916588
 383.000000   23.197983
 384.000000   23.499120
 385.000000   23.821196
 386.000000   24.165528
 387.000000   24.533561
 388.000000   24.926858
 389.000000   25.347098
 390.000000   25.796067
 391.000000   26.275645
 392.000000   26.787797
 393.000000   27.334559
 394.000000   27.918024
 395.000000   28.540323
 396.000000   29.203601
 397.000000   29.909987
 398.000000   30.661560
 399.000000   31.460292
 400.000000   32.307988
 401.000000   33.206207
 402.000000   34.156159
 403.000000   35.158587
 404.000000   36.213623
 405.000000   37.320621
 406.000000   38.477965
 407.000000   39.682866
 408.000000   40.931137
 409.000000   42.216977
 410.000000   43.532764
 411.000000   44.868895
 412.000000   46.213679
 413.000000   47.553339
 414.000000   48.872129
 415.000000   50.152614
 416.000000   51.376115
 417.000000   52.523322
 418.000000   53.575055
 419.000000   54.513128
 420.000000   55.321235
 421.000000   55.985785
 422.000000   56.496585
 423.000000   56.847312
 424.000000   57.035705
 425.000000   57.063482
 426.000000   56.935994
 427.000000   56.661693
 428.000000   56.251464
 429.000000   55.717922
 430.000000   55.074739
 431.000000   54.336034
 432.000000   53.515873
 433.000000   52.627866
 434.000000   51.684867
 435.000000   50.698750
 436.000000   49.680272
 437.000000   48.638986
 438.000000   47.583229
 439.000000   46.520156
 440.000000   45.455841
 441.000000   44.395401
 442.000000   43.343159
 443.000000   42.302807
 444.000000   41.277557
 445.000000   40.270263
 446.000000   39.283509
 447.000000   38.319657
 448.000000   37.380866
 449.000000   36.469076
 450.000000   35.585997
 451.000000   34.733078
 452.000000   33.911495
 453.000000   33.122140
 454.000000   32.365621
 455.000000   31.642277
 456.000000   30.952193
 457.000000   30.295224
 458.000000   29.671019
 459.000000   29.079050
 460.000000   28.518634
 461.000000   27.988963
 462.000000   27.489126
 463.000000   27.018129
 464.000000   26.574924
 465.000000   26.158421
 466.000000   25.767512
 467.000000   25.401081
 468.000000   25.058023
 469.000000   24.737253
 470.000000   24.437713
 471.000000   24.158384
 472.000000   23.898291
 473.000000   23.656504
 474.000000   23.432143
 475.000000   23.224382
 476.000000   23.032445
 477.000000   22.855610
 478.000000   22.693209
 479.000000   22.544623
 480.000000   22.409286
 481.000000   22.286680
 482.000000   22.176336
 483.000000   22.077833
 484.000000   21.990792
 485.000000   21.914880
 486.000000   21.849808
 487.000000   21.795325
 488.000000   21.751224
 489.000000   21.717334
 490.000000   21.693523
 491.000000   21.679698
 492.000000   21.675800
 493.000000   21.681805
 494.000000   21.697725
 495.000000   21.723602
 496.000000   21.759509
 497.000000   21.805551
 498.000000   21.861854
 499.000000   21.928571
 500.000000   22.005872
 501.000000   22.093937
 502.000000   22.192955
 503.000000   22.303111
 504.000000   22.424573
 505.000000   22.557481
 506.000000   22.701931
 507.000000   22.857949
 508.000000   23.025473
 509.000000   23.204320
 510.000000   23.394155
 511.000000   23.594457
 512.000000   23.804479
 513.000000   24.023211
 514.000000   24.249345
 515.000000   24.481239
 516.000000   24.716906
 517.000000   24.954002
 518.000000   25.189844
 519.000000   25.421459
 520.000000   25.645648
 521.000000   25.859099
 522.000000   26.058514
 523.000000   26.240761
 524.000000   26.403035
 525.000000   26.543011
 526.000000   26.658967
 527.000000   26.749873
 528.000000   26.815425
 529.000000   26.856023
 530.000000   26.872695
 531.000000   26.866985
 532.000000   26.840812
 533.000000   26.796327
 534.000000   26.735782
 535.000000   26.661417
 536.000000   26.575392
 537.000000   26.479742
 538.000000   26.376365
 539.000000   26.267033
 540.000000   26.153416
 541.000000   26.037102
 542.000000   25.919616
 543.000000   25.802433
 544.000000   25.686969
 545.000000   25.574577
 546.000000   25.466522
 547.000000   25.363969
 548.000000   25.267958
 549.000000   25.179396
 550.000000   25.099045
 551.000000   25.027526
 552.000000   24.965317
 553.000000   24.912766
 554.000000   24.870104
 555.000000   24.837455
 556.000000   24.814855
 557.000000   24.802263
 558.000000   24.799576
 559.000000   24.806641
 560.000000   24.823262
 561.000000   24.849214
 562.000000   24.884247
 563.000000   24.928090
 564.000000   24.980463
 565.000000   25.041075
 566.000000   25.109637
 567.000000   25.185860
 568.000000   25.269467
 569.000000   25.360197
 570.000000   25.457810
 571.000000   25.562096
 572.000000   25.672876
 573.000000   25.790006
 574.000000   25.913377
 575.000000   26.042908
 576.000000   26.178546
 577.000000   26.320259
 578.000000   26.468020
 579.000000   26.621811
 580.000000   26.781608
 581.000000   26.947384
 582.000000   27.119109
 583.000000   27.296754
 584.000000   27.480302
 585.000000   27.669763
 586.000000   27.865186
 587.000000   28.066675
 588.000000   28.274408
 589.000000   28.488642
 590.000000   28.709725
 591.000000   28.938093
 592.000000   29.174271
 593.000000   29.418860
 594.000000   29.672532
 595.000000   29.936012
 596.000000   30.210070
 597.000000   30.495509
 598.000000   30.793157
 599.000000   31.103861
 600.000000   31.428488
 601.000000   31.767922
 602.000000   32.123067
 603.000000   32.494857
 604.000000   32.884255
 605.000000   33.292264
 606.000000   33.719935
 607.000000   34.168374
 608.000000   34.638750
 609.000000   35.132300
 610.000000   35.650342
 611.000000   36.194277
 612.000000   36.765599
 613.000000   37.365898
 614.000000   37.996867
 615.000000   38.660305
 616.000000   39.358121
 617.000000   40.092331
 618.000000   40.865059
 619.000000   41.678533
 620.000000   42.535073
 621.000000   43.437079
 622.000000   44.387012
 623.000000   45.387364
 624.000000   46.440623
 625.000000   47.549224
 626.000000   48.715489
 627.000000   49.941549
 628.000000   51.229251
 629.000000   52.580049
 630.000000   53.994869
 631.000000   55.473963
 632.000000   57.016741
 633.000000   58.621594
 634.000000   60.285719
 635.000000   62.004941
 636.000000   63.773578
 637.000000   65.584338
 638.000000   67.428294
 639.000000   69.294953
 640.000000   71.172439
 641.000000   73.047805
 642.000000   74.907472
 643.000000   76.737782
 644.000000   78.525624
 645.000000   80.259080
 646.000000   81.928024
 647.000000   83.524607
 648.000000   85.043569
 649.000000   86.482334
 650.000000   87.840880
 651.000000   89.121399
 652.000000   90.327770
 653.000000   91.464907
 654.000000   92.538011
 655.000000   93.551800
 656.000000   94.509730
 657.000000   95.413281
 658.000000   96.261334
 659.000000   97.049705
 660.000000   97.770879
 661.000000   98.414022
 662.000000   98.965293
 663.000000   99.408500
 664.000000   99.726080
 665.000000   99.900359
 666.000000   99.914981
 667.000000   99.756387
 668.000000   99.415173
 669.000000   98.887161
 670.000000   98.174074
 671.000000   97.283706
 672.000000   96.229603
 673.000000   95.030288
 674.000000   93.708156
 675.000000   92.288184
 676.000000   90.796589
 677.000000   89.259588
 678.000000   87.702331
 679.000000   86.148095
 680.000000   84.617717
 681.000000   83.129291
 682.000000   81.698065
 683.000000   80.336508
 684.000000   79.054499
 685.000000   77.859591
 686.000000   76.757311
 687.000000   75.751479
 688.000000   74.844516
 689.000000   74.037728
 690.000000   73.331570
 691.000000   72.725865
 692.000000   72.220004
 693.000000   71.813109
 694.000000   71.504170
 695.000000   71.292153
 696.000000   71.176096
 697.000000   71.155184
 698.000000   71.228801
 699.000000   71.396588
 700.000000   71.658473
 701.000000   72.014706
 702.000000   72.465884
 703.000000   73.012974
 704.000000   73.657326
 705.000000   74.400690
 706.000000   75.245231
 707.000000   76.193535
 708.000000   77.248617
 709.000000   78.413930
 710.000000   79.693360
 711.000000   81.091228
 712.000000   82.612277
 713.000000   84.261658
 714.000000   86.044897
 715.000000   87.967856
 716.000000   90.036675
 717.000000   92.257690
 718.000000   94.637321
 719.000000   97.181931
 720.000000   99.897641
 721.000000  102.790093
 722.000000  105.864154
 723.000000  109.123551
 724.000000  112.570430
 725.000000  116.204820
 726.000000  120.024018
 727.000000  124.021872
 728.000000  128.187989
 729.000000  132.506880
 730.000000  136.957078
 731.000000  141.510289
 732.000000  146.130655
 733.000000  150.774219
 734.000000  155.388740
 735.000000  159.913967
 736.000000  164.282525
 737.000000  168.421502
 738.000000  172.254803
 739.000000  175.706227
 740.000000  178.703125
 741.000000  181.180379
 742.000000  183.084338
 743.000000  184.376283
 744.000000  185.035018
 745.000000  185.058220
 746.000000  184.462404
 747.000000  183.281466
 748.000000  181.564027
 749.000000  179.369911
 750.000000  176.766191
 751.000000  173.823237
 752.000000  170.611148
 753.000000  167.196831
 754.000000  163.641866
 755.000000  160.001183
 756.000000  156.322474
 757.000000  152.646210
 758.000000  149.006070
 759.000000  145.429647
 760.000000  141.939245
 761.000000  138.552683
 762.000000  135.284017
 763.000000  132.144145
 764.000000  129.141307
 765.000000  126.281471
 766.000000  123.568667
 767.000000  121.005257
 768.000000  118.592192
 769.000000  116.329259
 770.000000  114.215308
 771.000000  112.248470
 772.000000  110.426354
 773.000000  108.746203
 774.000000  107.205022
 775.000000  105.799662
 776.000000  104.526870
 777.000000  103.383312
 778.000000  102.365576
 779.000000  101.470171
 780.000000  100.693529
 781.000000  100.032012
 782.000000   99.481947
 783.000000   99.039672
 784.000000   98.701613
 785.000000   98.464378
 786.000000   98.324865
 787.000000   98.280380
 788.000000   98.328749
 789.000000   98.468424
 790.000000   98.698547
 791.000000   99.018992
 792.000000   99.430360
 793.000000   99.933926
 794.000000  100.531546
 795.000000  101.225530
 796.000000  102.018482
 797.000000  102.913122
 798.000000  103.912089
 799.000000  105.017739
 800.000000  106.231932
 801.000000  107.555804
 802.000000  108.989531
 803.000000  110.532072
 804.000000  112.180906
 805.000000  113.931742
 806.000000  115.778232
 807.000000  117.711696
 808.000000  119.720874
 809.000000  121.791750
 810.000000  123.907477
 811.000000  126.048458
 812.000000  128.192624
 813.000000  130.315940
 814.000000  132.393186
 815.000000  134.398980
 816.000000  136.309030
 817.000000  138.101514
 818.000000  139.758498
 819.000000  141.267232
 820.000000  142.621189
 821.000000  143.820720
 822.000000  144.873244
 823.000000  145.792943
 824.000000  146.600013
 825.000000  147.319551
 826.000000  147.980224
 827.000000  148.612854
 828.000000  149.249046
 829.000000  149.919976
 830.000000  150.655383
 831.000000  151.482811
 832.000000  152.427077
 833.000000  153.509942
 834.000000  154.749941
 835.000000  156.162320
 836.000000  157.759022
 837.000000  159.548700
 838.000000  161.536707
 839.000000  163.725049
 840.000000  166.112295
 841.000000  168.693436
 842.000000  171.459726
 843.000000  174.398520
 844.000000  177.493157
 845.000000  180.722942
 846.000000  184.063280
 847.000000  187.486035
 848.000000  190.960141
 849.000000  194.452524
 850.000000  197.929306
 851.000000  201.357264
 852.000000  204.705431
 853.000000  207.946733
 854.000000  211.059479
 855.000000  214.028574
 856.000000  216.846313
 857.000000  219.512708
 858.000000  222.035353
 859.000000  224.428897
 860.000000  226.714247
 861.000000  228.917646
 862.000000  231.069750
 863.000000  233.204776
 864.000000  235.359783
 865.000000  237.574051
 866.000000  239.888559
 867.000000  242.345501
 868.000000  244.987820
 869.000000  247.858756
 870.000000  251.001415
 871.000000  254.458379
 872.000000  258.271395
 873.000000  262.481148
 874.000000  267.127146
 875.000000  272.247697
 876.000000  277.879967
 877.000000  284.060093
 878.000000  290.823314
 879.000000  298.204086
 880.000000  306.236137
 881.000000  314.952437
 882.000000  324.385036
 883.000000  334.564735
 884.000000  345.520557
 885.000000  357.278975
 886.000000  369.862862
 887.000000  383.290108
 888.000000  397.571887
 889.000000  412.710516
 890.000000  428.696894
 891.000000  445.507509
 892.000000  463.101038
 893.000000  481.414607
 894.000000  500.359833
 895.000000  519.818862
 896.000000  539.640692
 897.000000  559.638195
 898.000000  579.586340
 899.000000  599.222207
 900.000000  618.247418
 901.000000  636.333564
 902.000000  653.131013
 903.000000  668.281245
 904.000000  681.432352
 905.000000  692.256873
 906.000000  700.470578
 907.000000  705.850391
 908.000000  708.249467
 909.000000  707.607564
 910.000000  703.955356
 911.000000  697.412081
 912.000000  688.176823
 913.000000  676.514571
 914.000000  662.738774
 915.000000  647.192411
 916.000000  630.229497
 917.000000  612.198595
 918.000000  593.429394
 919.000000  574.222863
 920.000000  554.844998
 921.000000  535.523828
 922.000000  516.449109
 923.000000  497.774053
 924.000000  479.618429
 925.000000  462.072461
 926.000000  445.201024
 927.000000  429.047802
 928.000000  413.639149
 929.000000  398.987510
 930.000000  385.094362
 931.000000  371.952653
 932.000000  359.548802
 933.000000  347.864299
 934.000000  336.877001
 935.000000  326.562152
 936.000000  316.893217
 937.000000  307.842548
 938.000000  299.381931
 939.000000  291.483029
 940.000000  284.117755
 941.000000  277.258568
 942.000000  270.878725
 943.000000  264.952478
 944.000000  259.455233
 945.000000  254.363670
 946.000000  249.655834
 947.000000  245.311184
 948.000000  241.310620
 949.000000  237.636485
 950.000000  234.272535
 951.000000  231.203896
 952.000000  228.417005
 953.000000  225.899534
 954.000000  223.640314
 955.000000  221.629252
 956.000000  219.857248
 957.000000  218.316118
 958.000000  216.998519
 959.000000  215.897891
 960.000000  215.008394
 961.000000  214.324865
 962.000000  213.842779
 963.000000  213.558217
 964.000000  213.467847
 965.000000  213.568901
 966.000000  213.859167
 967.000000  214.336978
 968.000000  215.001207
 969.000000  215.851268
 970.000000  216.887113
 971.000000  218.109234
 972.000000  219.518671
 973.000000  221.117016
 974.000000  222.906422
 975.000000  224.889616
 976.000000  227.069909
 977.000000  229.451212
 978.000000  232.038059
 979.000000  234.835621
 980.000000  237.849733
 981.000000  241.086922
 982.000000  244.554434
 983.000000  248.260268
 984.000000  252.213211
 985.000000  256.422878
 986.000000  260.899756
 987.000000  265.655246
 988.000000  270.701715
 989.000000  276.052546
 990.000000  281.722193
 991.000000  287.726236
 992.000000  294.081443
 993.000000  300.805824
 994.000000  307.918697
 995.000000  315.440744
 996.000000  323.394072
 997.000000  331.802266
 998.000000  340.690449
 999.000000  350.085331
1000.000000  360.015256
1001.000000  370.510257
1002.000000  381.602093
1003.000000  393.324311
1004.000000  405.712301
1005.000000  418.803369
1006.000000  432.636833
1007.000000  447.254136
1008.000000  462.698995
1009.000000  479.017569
1010.000000  496.258640
1011.000000  514.473790
1012.000000  533.717532
1013.000000  554.047349
1014.000000  575.523576
1015.000000  598.209056
1016.000000  622.168500
1017.000000  647.467472
1018.000000  674.170953
1019.000000  702.341432
1020.000000  732.036518
1021.000000  763.306071
1022.000000  796.188885
1023.000000  830.708990
1024.000000  866.871637
1025.000000  904.659118
1026.000000  944.026538
1027.000000  984.897748
1028.000000 1027.161615
1029.000000 1070.668843
1030.000000 1115.229510
1031.000000 1160.611414
1032.000000 1206.539264
1033.000000 1252.694603
1034.000000 1298.716316
1035.000000 1344.201543
1036.000000 1388.706921
1037.000000 1431.750305
1038.000000 1472.813460
1039.000000 1511.346567
1040.000000 1546.775729
1041.000000 1578.514676
1042.000000 1605.981675
1043.000000 1628.621943
1044.000000 1645.934880
1045.000000 1657.504244
1046.000000 1663.028309
1047.000000 1662.346336
1048.000000 1655.457643
1049.000000 1642.530238
1050.000000 1623.897324
1051.000000 1600.041700
1052.000000 1571.569765
1053.000000 1539.178201
1054.000000 1503.617052
1055.000000 1465.652996
1056.000000 1426.035939
1057.000000 1385.471182
1058.000000 1344.598293
1059.000000 1303.976862
1060.000000 1264.078570
1061.000000 1225.284555
1062.000000 1187.886852
1063.000000 1152.092733
1064.000000 1118.030930
1065.000000 1085.758961
1066.000000 1055.271073
1067.000000 1026.506537
1068.000000  999.358224
1069.000000  973.681540
1070.000000  949.303807
1071.000000  926.034138
1072.000000  903.673737
1073.000000  882.026351
1074.000000  860.908425
1075.000000  840.158337
1076.000000  819.643998
1077.000000  799.268207
1078.000000  778.971261
1079.000000  758.730684
1080.000000  738.558234
1081.000000  718.494687
1082.000000  698.603118
1083.000000  678.961503
1084.000000  659.655418
1085.000000  640.771470
1086.000000  622.391897
1087.000000  604.590532
1088.000000  587.430150
1089.000000  570.961056
1090.000000  555.220684
1091.000000  540.233946
1092.000000  526.014057
1093.000000  512.563622
1094.000000  499.875794
1095.000000  487.935391
1096.000000  476.719915
1097.000000  466.200458
1098.000000  456.342536
1099.000000  447.106908
1100.000000  438.450456
1101.000000  430.327192
1102.000000  422.689452
1103.000000  415.489292
1104.000000  408.680057
1105.000000  402.218062
1106.000000  396.064257
1107.000000  390.185730
1108.000000  384.556891
1109.000000  379.160209
1110.000000  373.986386
1111.000000  369.033987
1112.000000  364.308524
1113.000000  359.821153
1114.000000  355.587086
1115.000000  351.623913
1116.000000  347.949952
1117.000000  344.582755
1118.000000  341.537822
1119.000000  338.827550
1120.000000  336.460415
1121.000000  334.440338
1122.000000  332.766197
1123.000000  331.431439
1124.000000  330.423757
1125.000000  329.724805
1126.000000  329.309968
1127.000000  329.148214
1128.000000  329.202082
1129.000000  329.427894
1130.000000  329.776284
1131.000000  330.193131
1132.000000  330.620972
1133.000000  331.000905
1134.000000  331.274934
1135.000000  331.388624
1136.000000  331.293834
1137.000000  330.951252
1138.000000  330.332421
1139.000000  329.420990
1140.000000  328.212983
1141.000000  326.716042
1142.000000  324.947733
1143.000000  322.933119
1144.000000  320.701931
1145.000000  318.285684
1146.000000  315.715077
1147.000000  313.017943
1148.000000  310.217922
1149.000000  307.333928
1150.000000  304.380366
1151.000000  301.367960
1152.000000  298.305016
1153.000000  295.198871
1154.000000  292.057303
1155.000000  288.889702
1156.000000  285.707855
1157.000000  282.526269
1158.000000  279.362043
1159.000000  276.234356
1160.000000  273.163679
1161.000000  270.170852
1162.000000  267.276145
1163.000000  264.498395
1164.000000  261.854291
1165.000000  259.357831
1166.000000  257.019958
1167.000000  254.848346
1168.000000  252.847335
1169.000000  251.017973
1170.000000  249.358161
1171.000000  247.862893
1172.000000  246.524581
1173.000000  245.333461
1174.000000  244.278088
1175.000000  243.345874
1176.000000  242.523667
1177.000000  241.798311
1178.000000  241.157146
1179.000000  240.588387
1180.000000  240.081349
1181.000000  239.626492
1182.000000  239.215284
1183.000000  238.839924
1184.000000  238.492987
1185.000000  238.167058
1186.000000  237.854455
1187.000000  237.547095
1188.000000  237.236564
1189.000000  236.914398
1190.000000  236.572560
1191.000000  236.204042
1192.000000  235.803525
1193.000000  235.367979
1194.000000  234.897128
1195.000000  234.393698
1196.000000  233.863408
1197.000000  233.314718
1198.000000  232.758355
1199.000000  232.206698
1200.000000  231.673088
1201.000000  231.171152
1202.000000  230.714192
1203.000000  230.314686
1204.000000  229.983927
1205.000000  229.731793
1206.000000  229.566639
1207.000000  229.495295
1208.000000  229.523131
1209.000000  229.654180
1210.000000  229.891291
1211.000000  230.236287
1212.000000  230.690129
1213.000000  231.253071
1214.000000  231.924793
1215.000000  232.704533
1216.000000  233.591189
1217.000000  234.583416
1218.000000  235.679710
1219.000000  236.878485
1220.000000  238.178145
1221.000000  239.577155
1222.000000  241.074111
1223.000000  242.667803
1224.000000  244.357282
1225.000000  246.141920
1226.000000  248.021450
1227.000000  249.996007
1228.000000  252.066142
1229.000000  254.232823
1230.000000  256.497419
1231.000000  258.861671
1232.000000  261.327656
1233.000000  263.897741
1234.000000  266.574548
1235.000000  269.360908
1236.000000  272.259842
1237.000000  275.274534
1238.000000  278.408320
1239.000000  281.664690
1240.000000  285.047285
1241.000000  288.559916
1242.000000  292.206573
1243.000000  295.991446
1244.000000  299.918947
1245.000000  303.993728
1246.000000  308.220708
1247.000000  312.605095
1248.000000  317.152411
1249.000000  321.868517
1250.000000  326.759637
1251.000000  331.832385
1252.000000  337.093794
1253.000000  342.551344
1254.000000  348.212988
1255.000000  354.087191
1256.000000  360.182959
1257.000000  366.509876
1258.000000  373.078142
1259.000000  379.898620
1260.000000  386.982872
1261.000000  394.343214
1262.000000  401.992765
1263.000000  409.945502
1264.000000  418.216321
1265.000000  426.821101
1266.000000  435.776771
1267.000000  445.101386
1268.000000  454.814207
1269.000000  464.935778
1270.000000  475.488024
1271.000000  486.494341
1272.000000  497.979695
1273.000000  509.970730
1274.000000  522.495872
1275.000000  535.585449
1276.000000  549.271798
1277.000000  563.589386
1278.000000  578.574927
1279.000000  594.267489
1280.000000  610.708603
1281.000000  627.942357
1282.000000  646.015476
1283.000000  664.977379
1284.000000  684.880210
1285.000000  705.778834
1286.000000  727.730788
1287.000000  750.796181
1288.000000  775.037539
1289.000000  800.519578
1290.000000  827.308920
1291.000000  855.473741
1292.000000  885.083357
1293.000000  916.207789
1294.000000  948.917310
1295.000000  983.282024
1296.000000 1019.371537
1297.000000 1057.254748
1298.000000 1096.999823
1299.000000 1138.674361
1300.000000 1182.345740
1301.000000 1228.081548
1302.000000 1275.949947
1303.000000 1326.019691
1304.000000 1378.359475
1305.000000 1433.036199
1306.000000 1490.111717
1307.000000 1549.637700
1308.000000 1611.648305
1309.000000 1676.150547
1310.000000 1743.112414
1311.000000 1812.449027
1312.000000 1884.007366
1313.000000 1957.550327
1314.000000 2032.741144
1315.000000 2109.129474
1316.000000 2186.140730
1317.000000 2263.070485
1318.000000 2339.085942
1319.000000 2413.236431
1320.000000 2484.474582
1321.000000 2551.689126
1322.000000 2613.749150
1323.000000 2669.558129
1324.000000 2718.114335
1325.000000 2758.572630
1326.000000 2790.301522
1327.000000 2812.929096
1328.000000 2826.372259
1329.000000 2830.845601
1330.000000 2826.848830
1331.000000 2815.134570
1332.000000 2796.660801
1333.000000 2772.533847
1334.000000 2743.948320
1335.000000 2712.129886
1336.000000 2678.285409
1337.000000 2643.563279
1338.000000 2609.025047
1339.000000 2575.628022
1340.000000 2544.217477
1341.000000 2515.526579
1342.000000 2490.181962
1343.000000 2468.713029
1344.000000 2451.563343
1345.000000 2439.102870
1346.000000 2431.640189
1347.000000 2429.434104
1348.000000 2432.704334
1349.000000 2441.641108
1350.000000 2456.413558
1351.000000 2477.176849
1352.000000 2504.077924
1353.000000 2537.259756
1354.000000 2576.863906
1355.000000 2623.031200
1356.000000 2675.900286
1357.000000 2735.603867
1358.000000 2802.262382
1359.000000 2875.974956
1360.000000 2956.807438
1361.000000 3044.777363
1362.000000 3139.835738
1363.000000 3241.845584
1364.000000 3350.557341
1365.000000 3465.581421
1366.000000 3586.358574
1367.000000 3712.129210
1368.000000 3841.903428
1369.000000 3974.434311
1370.000000 4108.197821
1371.000000 4241.383422
1372.000000 4371.900074
1373.000000 4497.402273
1374.000000 4615.340146
1375.000000 4723.035915
1376.000000 4817.786378
1377.000000 4896.987381
1378.000000 4958.272236
1379.000000 4999.652217
1380.000000 5019.644739
1381.000000 5017.374386
1382.000000 4992.634088
1383.000000 4945.898358
1384.000000 4878.286802
1385.000000 4791.482763
1386.000000 4687.617627
1387.000000 4569.134832
1388.000000 4438.648517
1389.000000 4298.810268
1390.000000 4152.194109
1391.000000 4001.205935
1392.000000 3848.019546
1393.000000 3694.538280
1394.000000 3542.378972
1395.000000 3392.873791
1396.000000 3247.085187
1397.000000 3105.829486
1398.000000 2969.705313
1399.000000 2839.123869
1400.000000 2714.338865
1401.000000 2595.474660
1402.000000 2482.551749
1403.000000 2375.509161
1404.000000 2274.223688
1405.000000 2178.526057
1406.000000 2088.214274
1407.000000 2003.064470
1408.000000 1922.839555
1409.000000 1847.296037
1410.000000 1776.189274
1411.000000 1709.277465
1412.000000 1646.324594
1413.000000 1587.102543
1414.000000 1531.392544
1415.000000 1478.986110
1416.000000 1429.685566
1417.000000 1383.304261
1418.000000 1339.666564
1419.000000 1298.607673
1420.000000 1259.973310
1421.000000 1223.619325
1422.000000 1189.411243
1423.000000 1157.223777
1424.000000 1126.940322
1425.000000 1098.452442
1426.000000 1071.659366
1427.000000 1046.467483
1428.000000 1022.789865
1429.000000 1000.545806
1430.000000  979.660377
1431.000000  960.064015
1432.000000  941.692141
1433.000000  924.484803
1434.000000  908.386364
1435.000000  893.345226
1436.000000  879.313598
1437.000000  866.247312
1438.000000  854.105686
1439.000000  842.851427
1440.000000  832.450580
1441.000000  822.872496
1442.000000  814.089821
1443.000000  806.078469
1444.000000  798.817593
1445.000000  792.289507
1446.000000  786.479579
1447.000000  781.376071
1448.000000  776.969950
1449.000000  773.254661
1450.000000  770.225887
1451.000000  767.881300
1452.000000  766.220314
1453.000000  765.243845
1454.000000  764.954079
1455.000000  765.354238
1456.000000  766.448350
1457.000000  768.241004
1458.000000  770.737085
1459.000000  773.941494
1460.000000  777.858836
1461.000000  782.493093
1462.000000  787.847294
1463.000000  793.923194
1464.000000  800.721005
1465.000000  808.239215
1466.000000  816.474540
1467.000000  825.422064
1468.000000  835.075615
1469.000000  845.428397
1470.000000  856.473891
1471.000000  868.206975
1472.000000  880.625176
1473.000000  893.729929
1474.000000  907.527645
1475.000000  922.030426
1476.000000  937.256240
1477.000000  953.228445
1478.000000  969.974633
1479.000000  987.524859
1480.000000 1005.909406
1481.000000 1025.156330
1482.000000 1045.289069
1483.000000 1066.324367
1484.000000 1088.270782
1485.000000 1111.127920
1486.000000 1134.886464
1487.000000 1159.528926
1488.000000 1185.030942
1489.000000 1211.362800
1490.000000 1238.490826
1491.000000 1266.378244
1492.000000 1294.985197
1493.000000 1324.267780
1494.000000 1354.176173
1495.000000 1384.652212
1496.000000 1415.627038
1497.000000 1447.019571
1498.000000 1478.736686
1499.000000 1510.675817
1500.000000 1542.730459
1501.000000 1574.798648
1502.000000 1606.793973
1503.000000 1638.658173
1504.000000 1670.373951
1505.000000 1701.976393
1506.000000 1733.561398
1507.000000 1765.289855
1508.000000 1797.386810
1509.000000 1830.135560
1510.000000 1863.867233
1511.000000 1898.946921
1512.000000 1935.757679
1513.000000 1974.683668
1514.000000 2016.093533
1515.000000 2060.324687
1516.000000 2107.668845
1517.000000 2158.358758
1518.000000 2212.555917
1519.000000 2270.338888
1520.000000 2331.692014
1521.000000 2396.494389
1522.000000 2464.509352
1523.000000 2535.375081
1524.000000 2608.597309
1525.000000 2683.545602
1526.000000 2759.454925
1527.000000 2835.434378
1528.000000 2910.484826
1529.000000 2983.526570
1530.000000 3053.437253
1531.000000 3119.098761
1532.000000 3179.450211
1533.000000 3233.542504
1534.000000 3280.588676
1535.000000 3320.003868
1536.000000 3351.429399
1537.000000 3374.737221
1538.000000 3390.013690
1539.000000 3397.524636
1540.000000 3397.666522
1541.000000 3390.910472
1542.000000 3377.746782
1543.000000 3358.637142
1544.000000 3333.980261
1545.000000 3304.094401
1546.000000 3269.217687
1547.000000 3229.524509
1548.000000 3185.154169
1549.000000 3136.246351
1550.000000 3082.977353
1551.000000 3025.591319
1552.000000 2964.421854
1553.000000 2899.901319
1554.000000 2832.557200
1555.000000 2762.997021
1556.000000 2691.884784
1557.000000 2619.912720
1558.000000 2547.772192
1559.000000 2476.127011
1560.000000 2405.591475
1561.000000 2336.714363
1562.000000 2269.969150
1563.000000 2205.749960
1564.000000 2144.372315
1565.000000 2086.077523
1566.000000 2031.039533
1567.000000 1979.373228
1568.000000 1931.143298
1569.000000 1886.373063
1570.000000 1845.052798
1571.000000 1807.147312
1572.000000 1772.602619
1573.000000 1741.351683
1574.000000 1713.319264
1575.000000 1688.425922
1576.000000 1666.591281
1577.000000 1647.736652
1578.000000 1631.787102
1579.000000 1618.673084
1580.000000 1608.331692
1581.000000 1600.707620
1582.000000 1595.753900
1583.000000 1593.432455
1584.000000 1593.714528
1585.000000 1596.581004
1586.000000 1602.022679
1587.000000 1610.040477
1588.000000 1620.645642
1589.000000 1633.859924
1590.000000 1649.715753
1591.000000 1668.256427
1592.000000 1689.536292
1593.000000 1713.620936
1594.000000 1740.587372
1595.000000 1770.524217
1596.000000 1803.531834
1597.000000 1839.722445
1598.000000 1879.220155
1599.000000 1922.160882
1600.000000 1968.692141
1601.000000 2018.972615
1602.000000 2073.171474
1603.000000 2131.467333
1604.000000 2194.046768
1605.000000 2261.102263
1606.000000 2332.829453
1607.000000 2409.423502
1608.000000 2491.074435
1609.000000 2577.961231
1610.000000 2670.244470
1611.000000 2768.057341
1612.000000 2871.494854
1613.000000 2980.601140
1614.000000 3095.354869
1615.000000 3215.652952
1616.000000 3341.292958
1617.000000 3471.954997
1618.000000 3607.184205
1619.000000 3746.375462
1620.000000 3888.762399
1621.000000 4033.413192
1622.000000 4179.235834
1623.000000 4324.995491
1624.000000 4469.345968
1625.000000 4610.876185
1626.000000 4748.170871
1627.000000 4879.882581
1628.000000 5004.809922
1629.000000 5121.975063
1630.000000 5230.692638
1631.000000 5330.622418
1632.000000 5421.799803
1633.000000 5504.640873
1634.000000 5579.922021
1635.000000 5648.737209
1636.000000 5712.438049
1637.000000 5772.562926
1638.000000 5830.761079
1639.000000 5888.716501
1640.000000 5948.074936
1641.000000 6010.375769
1642.000000 6076.989405
1643.000000 6149.059966
1644.000000 6227.452874
1645.000000 6312.706891
1646.000000 6404.990624
1647.000000 6504.064078
1648.000000 6609.246697
1649.000000 6719.394299
1650.000000 6832.888333
1651.000000 6947.641742
1652.000000 7061.126192
1653.000000 7170.425219
1654.000000 7272.316649
1655.000000 7363.385375
1656.000000 7440.164174
1657.000000 7499.296133
1658.000000 7537.708070
1659.000000 7552.780945
1660.000000 7542.501534
1661.000000 7505.580284
1662.000000 7441.523328
1663.000000 7350.651735
1664.000000 7234.067201
1665.000000 7093.569465
1666.000000 6931.535663
1667.000000 6750.774892
1668.000000 6554.372289
1669.000000 6345.536016
1670.000000 6127.458199
1671.000000 5903.197670
1672.000000 5675.588932
1673.000000 5447.178533
1674.000000 5220.187454
1675.000000 4996.496253
1676.000000 4777.648694
1677.000000 4564.869242
1678.000000 4359.089975
1679.000000 4160.983048
1680.000000 3970.995546
1681.000000 3789.384308
1682.000000 3616.249058
1683.000000 3451.562748
1684.000000 3295.198552
1685.000000 3146.953277
1686.000000 3006.567250
1687.000000 2873.740877
1688.000000 2748.148207
1689.000000 2629.447840
1690.000000 2517.291548
1691.000000 2411.330966
1692.000000 2311.222681
1693.000000 2216.631989
1694.000000 2127.235593
1695.000000 2042.723446
1696.000000 1962.799919
1697.000000 1887.184440
1698.000000 1815.611740
1699.000000 1747.831786
1700.000000 1683.609494
1701.000000 1622.724282
1702.000000 1564.969506
1703.000000 1510.151826
1704.000000 1458.090535
1705.000000 1408.616852
1706.000000 1361.573230
1707.000000 1316.812660
1708.000000 1274.197997
1709.000000 1233.601316
1710.000000 1194.903288
1711.000000 1157.992594
1712.000000 1122.765367
1713.000000 1089.124674
1714.000000 1056.980023
1715.000000 1026.246906
1716.000000  996.846376
1717.000000  968.704643
1718.000000  941.752713
1719.000000  915.926043
1720.000000  891.164220
1721.000000  867.410674
1722.000000  844.612401
1723.000000  822.719710
1724.000000  801.685997
1725.000000  781.467521
1726.000000  762.023209
1727.000000  743.314473
1728.000000  725.305034
1729.000000  707.960770
1730.000000  691.249564
1731.000000  675.141176
1732.000000  659.607110
1733.000000  644.620501
1734.000000  630.156012
1735.000000  616.189726
1736.000000  602.699059
1737.000000  589.662673
1738.000000  577.060398
1739.000000  564.873153
1740.000000  553.082884
1741.000000  541.672495
1742.000000  530.625790
1743.000000  519.927420
1744.000000  509.562828
1745.000000  499.518205
1746.000000  489.780440
1747.000000  480.337084
1748.000000  471.176307
1749.000000  462.286867
1750.000000  453.658067
1751.000000  445.279734
1752.000000  437.142182
1753.000000  429.236186
1754.000000  421.552960
1755.000000  414.084126
1756.000000  406.821697
1757.000000  399.758054
1758.000000  392.885924
1759.000000  386.198364
1760.000000  379.688744
1761.000000  373.350725
1762.000000  367.178252
1763.000000  361.165532
1764.000000  355.307025
1765.000000  349.597426
1766.000000  344.031662
1767.000000  338.604868
1768.000000  333.312389
1769.000000  328.149760
1770.000000  323.112702
1771.000000  318.197111
1772.000000  313.399049
1773.000000  308.714739
1774.000000  304.140552
1775.000000  299.673006
1776.000000  295.308754
1777.000000  291.044580
1778.000000  286.877395
1779.000000  282.804226
1780.000000  278.822215
1781.000000  274.928612
1782.000000  271.120770
1783.000000  267.396143
1784.000000  263.752277
1785.000000  260.186808
1786.000000  256.697461
1787.000000  253.282042
1788.000000  249.938435
1789.000000  246.664601
1790.000000  243.458574
1791.000000  240.318455
1792.000000  237.242413
1793.000000  234.228680
1794.000000  231.275551
1795.000000  228.381377
1796.000000  225.544565
1797.000000  222.763578
1798.000000  220.036929
1799.000000  217.363181
1800.000000  214.740945
1801.000000  212.168877
1802.000000  209.645677
1803.000000  207.170088
1804.000000  204.740893
1805.000000  202.356913
1806.000000  200.017009
1807.000000  197.720076
1808.000000  195.465044
1809.000000  193.250876
1810.000000  191.076570
1811.000000  188.941152
1812.000000  186.843677
1813.000000  184.783233
1814.000000  182.758932
1815.000000  180.769913
1816.000000  178.815343
1817.000000  176.894411
1818.000000  175.006331
1819.000000  173.150342
1820.000000  171.325702
1821.000000  169.531693
1822.000000  167.767615
1823.000000  166.032792
1824.000000  164.326564
1825.000000  162.648291
1826.000000  160.997351
1827.000000  159.373138
1828.000000  157.775065
1829.000000  156.202560
1830.000000  154.655068
1831.000000  153.132047
1832.000000  151.632972
1833.000000  150.157331
1834.000000  148.704625
1835.000000  147.274370
1836.000000  145.866095
1837.000000  144.479340
1838.000000  143.113658
1839.000000  141.768613
1840.000000  140.443782
1841.000000  139.138750
1842.000000  137.853116
1843.000000  136.586488
1844.000000  135.338483
1845.000000  134.108729
1846.000000  132.896862
1847.000000  131.702529
1848.000000  130.525384
1849.000000  129.365091
1850.000000  128.221322
1851.000000  127.093756
1852.000000  125.982081
1853.000000  124.885993
1854.000000  123.805193
1855.000000  122.739392
1856.000000  121.688306
1857.000000  120.651659
1858.000000  119.629181
1859.000000  118.620608
1860.000000  117.625683
1861.000000  116.644155
1862.000000  115.675777
1863.000000  114.720311
1864.000000  113.777521
1865.000000  112.847179
1866.000000  111.929061
1867.000000  111.022949
1868.000000  110.128628
1869.000000  109.245890
1870.000000  108.374531
1871.000000  107.514351
1872.000000  106.665155
1873.000000  105.826751
1874.000000  104.998953
1875.000000  104.181579
1876.000000  103.374450
1877.000000  102.577391
1878.000000  101.790230
1879.000000  101.012802
1880.000000  100.244941
1881.000000   99.486487
1882.000000   98.737285
1883.000000   97.997179
1884.000000   97.266020
1885.000000   96.543661
1886.000000   95.829957
1887.000000   95.124768
1888.000000   94.427955
1889.000000   93.739382
1890.000000   93.058917
1891.000000   92.386430
1892.000000   91.721795
1893.000000   91.064885
1894.000000   90.415579
1895.000000   89.773758
1896.000000   89.139303
1897.000000   88.512100
1898.000000   87.892036
1899.000000   87.279000
1900.000000   86.672885
1901.000000   86.073583
1902.000000   85.480991
1903.000000   84.895006
1904.000000   84.315529
1905.000000   83.742461
1906.000000   83.175705
1907.000000   82.615168
1908.000000   82.060756
1909.000000   81.512378
1910.000000   80.969945
1911.000000   80.433370
1912.000000   79.902566
1913.000000   79.377449
1914.000000   78.857937
1915.000000   78.343947
1916.000000   77.835401
1917.000000   77.332220
1918.000000   76.834326
1919.000000   76.341645
1920.000000   75.854103
1921.000000   75.371626
1922.000000   74.894143
1923.000000   74.421584
1924.000000   73.953880
1925.000000   73.490963
1926.000000   73.032767
1927.000000   72.579227
1928.000000   72.130277
1929.000000   71.685856
1930.000000   71.245901
1931.000000   70.810351
1932.000000   70.379146
1933.000000   69.952228
1934.000000   69.529538
1935.000000   69.111021
1936.000000   68.696619
1937.000000   68.286279
1938.000000   67.879946
1939.000000   67.477568
1940.000000   67.079091
1941.000000   66.684465
1942.000000   66.293639
1943.000000   65.906564
1944.000000   65.523191
1945.000000   65.143472
1946.000000   64.767360
1947.000000   64.394809
1948.000000   64.025772
1949.000000   63.660205
1950.000000   63.298063
1951.000000   62.939304
1952.000000   62.583885
1953.000000   62.231763
1954.000000   61.882897
1955.000000   61.537247
1956.000000   61.194771
1957.000000   60.855432
1958.000000   60.519190
1959.000000   60.186006
1960.000000   59.855844
1961.000000   59.528666
1962.000000   59.204435
1963.000000   58.883117
1964.000000   58.564675
1965.000000   58.249074
1966.000000   57.936282
1967.000000   57.626263
1968.000000   57.318984
1969.000000   57.014414
1970.000000   56.712519
1971.000000   56.413269
1972.000000   56.116631
1973.000000   55.822575
1974.000000   55.531071
1975.000000   55.242089
1976.000000   54.955599
1977.000000   54.671573
1978.000000   54.389982
1979.000000   54.110798
1980.000000   53.833992
1981.000000   53.559539
1982.000000   53.287411
1983.000000   53.017581
1984.000000   52.750024
1985.000000   52.484713
1986.000000   52.221623
1987.000000   51.960730
1988.000000   51.702009
1989.000000   51.445434
1990.000000   51.190983
1991.000000   50.938632
1992.000000   50.688357
1993.000000   50.440136
1994.000000   50.193946
1995.000000   49.949765
1996.000000   49.707570
1997.000000   49.467341
1998.000000   49.229054
1999.000000   48.992691
2000.000000   48.758229
2001.000000   48.525649
2002.000000   48.294929
2003.000000   48.066051
2004.000000   47.838994
2005.000000   47.613739
2006.000000   47.390267
2007.000000   47.168560
2008.000000   46.948597
2009.000000   46.730362
2010.000000   46.513835
2011.000000   46.299000
2012.000000   46.085838
2013.000000   45.874332
2014.000000   45.664465
2015.000000   45.456220
2016.000000   45.249580
2017.000000   45.044529
2018.000000   44.841050
2019.000000   44.639127
2020.000000   44.438745
2021.000000   44.239888
2022.000000   44.042541
2023.000000   43.846687
2024.000000   43.652312
2025.000000   43.459402
2026.000000   43.267941
2027.000000   43.077916
2028.000000   42.889311
2029.000000   42.702113
2030.000000   42.516308
2031.000000   42.331882
2032.000000   42.148821
2033.000000   41.967112
2034.000000   41.786742
2035.000000   41.607698
2036.000000   41.429967
2037.000000   41.253535
2038.000000   41.078392
2039.000000   40.904523
2040.000000   40.731917
2041.000000   40.560562
2042.000000   40.390445
2043.000000   40.221556
2044.000000   40.053882
2045.000000   39.887411
2046.000000   39.722132
2047.000000   39.558035
2048.000000   39.395107
2049.000000   39.233339
2050.000000   39.072718
2051.000000   38.913235
2052.000000   38.754878
2053.000000   38.597638
2054.000000   38.441503
2055.000000   38.286465
2056.000000   38.132511
2057.000000   37.979634
2058.000000   37.827822
2059.000000   37.677067
2060.000000   37.527357
2061.000000   37.378685
2062.000000   37.231040
2063.000000   37.084413
2064.000000   36.938795
2065.000000   36.794177
2066.000000   36.650550
2067.000000   36.507906
2068.000000   36.366234
2069.000000   36.225527
2070.000000   36.085776
2071.000000   35.946973
2072.000000   35.809109
2073.000000   35.672176
2074.000000   35.536166
2075.000000   35.401071
2076.000000   35.266882
2077.000000   35.133592
2078.000000   35.001193
2079.000000   34.869678
2080.000000   34.739038
2081.000000   34.609266
2082.000000   34.480355
2083.000000   34.352297
2084.000000   34.225085
2085.000000   34.098711
2086.000000   33.973169
2087.000000   33.848452
2088.000000   33.724552
2089.000000   33.601463
2090.000000   33.479178
2091.000000   33.357689
2092.000000   33.236991
2093.000000   33.117077
2094.000000   32.997939
2095.000000   32.879573
2096.000000   32.761971
2097.000000   32.645126
2098.000000   32.529034
2099.000000   32.413687
2100.000000   32.299079
2101.000000   32.185205
2102.000000   32.072058
2103.000000   31.959633
2104.000000   31.847923
2105.000000   31.736923
2106.000000   31.626627
2107.000000   31.517029
2108.000000   31.408124
2109.000000   31.299906
2110.000000   31.192369
2111.000000   31.085509
2112.000000   30.979319
2113.000000   30.873795
2114.000000   30.768932
2115.000000   30.664723
2116.000000   30.561164
2117.000000   30.458249
2118.000000   30.355974
2119.000000   30.254334
2120.000000   30.153323
2121.000000   30.052938
2122.000000   29.953172
2123.000000   29.854021
2124.000000   29.755480
2125.000000   29.657545
2126.000000   29.560211
2127.000000   29.463473
2128.000000   29.367327
2129.000000   29.271768
2130.000000   29.176792
2131.000000   29.082394
2132.000000   28.988570
2133.000000   28.895316
2134.000000   28.802627
2135.000000   28.710499
2136.000000   28.618927
2137.000000   28.527909
2138.000000   28.437439
2139.000000   28.347513
2140.000000   28.258128
2141.000000   28.169279
2142.000000   28.080963
2143.000000   27.993175
2144.000000   27.905912
2145.000000   27.819169
2146.000000   27.732944
2147.000000   27.647231
2148.000000   27.562028
2149.000000   27.477331
2150.000000   27.393135
2151.000000   27.309438
2152.000000   27.226236
2153.000000   27.143525
2154.000000   27.061302
2155.000000   26.979563
2156.000000   26.898305
2157.000000   26.817524
2158.000000   26.737217
2159.000000   26.657381
2160.000000   26.578012
2161.000000   26.499106
2162.000000   26.420662
2163.000000   26.342675
2164.000000   26.265142
2165.000000   26.188061
2166.000000   26.111427
2167.000000   26.035238
2168.000000   25.959491
2169.000000   25.884182
2170.000000   25.809309
2171.000000   25.734869
2172.000000   25.660859
2173.000000   25.587275
2174.000000   25.514115
2175.000000   25.441376
2176.000000   25.369055
2177.000000   25.297149
2178.000000   25.225656
2179.000000   25.154573
2180.000000   25.083896
2181.000000   25.013623
2182.000000   24.943752
2183.000000   24.874280
2184.000000   24.805204
2185.000000   24.736521
2186.000000   24.668229
2187.000000   24.600326
2188.000000   24.532808
2189.000000   24.465674
2190.000000   24.398920
2191.000000   24.332544
2192.000000   24.266545
2193.000000   24.200918
2194.000000   24.135662
2195.000000   24.070775
2196.000000   24.006254
2197.000000   23.942097
2198.000000   23.878301
2199.000000   23.814864
2200.000000   23.751784
2201.000000   23.689058
2202.000000   23.626685
2203.000000   23.564661
2204.000000   23.502986
2205.000000   23.441656
2206.000000   23.380669
2207.000000   23.320024
2208.000000   23.259718
2209.000000   23.199749
2210.000000   23.140115
2211.000000   23.080814
2212.000000   23.021844
2213.000000   22.963202
2214.000000   22.904887
2215.000000   22.846897
2216.000000   22.789230
2217.000000   22.731883
2218.000000   22.674855
2219.000000   22.618144
2220.000000   22.561748
2221.000000   22.505665
2222.000000   22.449893
2223.000000   22.394431
2224.000000   22.339276
2225.000000   22.284426
2226.000000   22.229881
2227.000000   22.175637
2228.000000   22.121694
2229.000000   22.068049
2230.000000   22.014700
2231.000000   21.961647
2232.000000   21.908886
2233.000000   21.856418
2234.000000   21.804239
2235.000000   21.752348
2236.000000   21.700743
2237.000000   21.649423
2238.000000   21.598387
2239.000000   21.547632
2240.000000   21.497156
2241.000000   21.446959
2242.000000   21.397039
2243.000000   21.347394
2244.000000   21.298022
2245.000000   21.248923
2246.000000   21.200094
2247.000000   21.151534
2248.000000   21.103241
2249.000000   21.055215
2250.000000   21.007453
2251.000000   20.959954
2252.000000   20.912716
2253.000000   20.865739
2254.000000   20.819021
2255.000000   20.772559
2256.000000   20.726354
2257.000000   20.680403
2258.000000   20.634706
2259.000000   20.589260
2260.000000   20.544064
2261.000000   20.499117
2262.000000   20.454419
2263.000000   20.409966
2264.000000   20.365759
2265.000000   20.321795
2266.000000   20.278074
2267.000000   20.234594
2268.000000   20.191354
2269.000000   20.148353
2270.000000   20.105589
2271.000000   20.063062
2272.000000   20.020769
2273.000000   19.978710
2274.000000   19.936884
2275.000000   19.895289
2276.000000   19.853924
2277.000000   19.812788
2278.000000   19.771880
2279.000000   19.731199
2280.000000   19.690743
2281.000000   19.650512
2282.000000   19.610504
2283.000000   19.570718
2284.000000   19.531153
2285.000000   19.491808
2286.000000   19.452682
2287.000000   19.413773
2288.000000   19.375082
2289.000000   19.336606
2290.000000   19.298345
2291.000000   19.260297
2292.000000   19.222462
2293.000000   19.184838
2294.000000   19.147424
2295.000000   19.110221
2296.000000   19.073225
2297.000000   19.036437
2298.000000   18.999856
2299.000000   18.963480
2300.000000   18.927309
2301.000000   18.891341
2302.000000   18.855576
2303.000000   18.820013
2304.000000   18.784650
2305.000000   18.749488
2306.000000   18.714524
2307.000000   18.679758
2308.000000   18.645190
2309.000000   18.610817
2310.000000   18.576640
2311.000000   18.542658
2312.000000   18.508869
2313.000000   18.475272
2314.000000   18.441868
2315.000000   18.408655
2316.000000   18.375631
2317.000000   18.342798
2318.000000   18.310152
2319.000000   18.277695
2320.000000   18.245424
2321.000000   18.213339
2322.000000   18.181440
2323.000000   18.149725
2324.000000   18.118194
2325.000000   18.086845
2326.000000   18.055679
2327.000000   18.024694
2328.000000   17.993890
2329.000000   17.963266
2330.000000   17.932821
2331.000000   17.902554
2332.000000   17.872465
2333.000000   17.842553
2334.000000   17.812817
2335.000000   17.783257
2336.000000   17.753871
2337.000000   17.724660
2338.000000   17.695622
2339.000000   17.666756
2340.000000   17.638063
2341.000000   17.609541
2342.000000   17.581189
2343.000000   17.553008
2344.000000   17.524996
2345.000000   17.497153
2346.000000   17.469478
2347.000000   17.441970
2348.000000   17.414629
2349.000000   17.387455
2350.000000   17.360445
2351.000000   17.333601
2352.000000   17.306921
2353.000000   17.280405
2354.000000   17.254052
2355.000000   17.227861
2356.000000   17.201833
2357.000000   17.175965
2358.000000   17.150259
2359.000000   17.124713
2360.000000   17.099326
2361.000000   17.074098
2362.000000   17.049029
2363.000000   17.024118
2364.000000   16.999364
2365.000000   16.974767
2366.000000   16.950327
2367.000000   16.926042
2368.000000   16.901913
2369.000000   16.877938
2370.000000   16.854118
2371.000000   16.830451
2372.000000   16.806938
2373.000000   16.783577
2374.000000   16.760369
2375.000000   16.737312
2376.000000   16.714407
2377.000000   16.691653
2378.000000   16.669048
2379.000000   16.646594
2380.000000   16.624289
2381.000000   16.602133
2382.000000   16.580125
2383.000000   16.558266
2384.000000   16.536554
2385.000000   16.514989
2386.000000   16.493571
2387.000000   16.472299
2388.000000   16.451173
2389.000000   16.430193
2390.000000   16.409357
2391.000000   16.388666
2392.000000   16.368119
2393.000000   16.347716
2394.000000   16.327456
2395.000000   16.307339
2396.000000   16.287365
2397.000000   16.267533
2398.000000   16.247843
2399.000000   16.228294
2400.000000   16.208887
2401.000000   16.189620
2402.000000   16.170493
2403.000000   16.151507
2404.000000   16.132659
2405.000000   16.113952
2406.000000   16.095383
2407.000000   16.076953
2408.000000   16.058660
2409.000000   16.040506
2410.000000   16.022490
2411.000000   16.004610
2412.000000   15.986868
2413.000000   15.969262
2414.000000   15.951792
2415.000000   15.934459
2416.000000   15.917261
2417.000000   15.900198
2418.000000   15.883270
2419.000000   15.866478
2420.000000   15.849819
2421.000000   15.833295
2422.000000   15.816905
2423.000000   15.800649
2424.000000   15.784525
2425.000000   15.768535
2426.000000   15.752678
2427.000000   15.736953
2428.000000   15.721361
2429.000000   15.705900
2430.000000   15.690572
2431.000000   15.675375
2432.000000   15.660309
2433.000000   15.645375
2434.000000   15.630571
2435.000000   15.615898
2436.000000   15.601355
2437.000000   15.586942
2438.000000   15.572659
2439.000000   15.558506
2440.000000   15.544483
2441.000000   15.530589
2442.000000   15.516824
2443.000000   15.503188
2444.000000   15.489680
2445.000000   15.476301
2446.000000   15.463050
2447.000000   15.449928
2448.000000   15.436933
2449.000000   15.424067
2450.000000   15.411327
2451.000000   15.398716
2452.000000   15.386231
2453.000000   15.373874
2454.000000   15.361643
2455.000000   15.349540
2456.000000   15.337563
2457.000000   15.325712
2458.000000   15.313988
2459.000000   15.302390
2460.000000   15.290918
2461.000000   15.279572
2462.000000   15.268352
2463.000000   15.257257
2464.000000   15.246288
2465.000000   15.235445
2466.000000   15.224726
2467.000000   15.214133
2468.000000   15.203665
2469.000000   15.193322
2470.000000   15.183104
2471.000000   15.173011
2472.000000   15.163043
2473.000000   15.153199
2474.000000   15.143479
2475.000000   15.133884
2476.000000   15.124414
2477.000000   15.115068
2478.000000   15.105846
2479.000000   15.096748
2480.000000   15.087774
2481.000000   15.078924
2482.000000   15.070198
2483.000000   15.061596
2484.000000   15.053118
2485.000000   15.044764
2486.000000   15.036534
2487.000000   15.028427
2488.000000   15.020444
2489.000000   15.012585
2490.000000   15.004849
2491.000000   14.997237
2492.000000   14.989749
2493.000000   14.982384
2494.000000   14.975143
2495.000000   14.968026
2496.000000   14.961031
2497.000000   14.954161
2498.000000   14.947414
2499.000000   14.940791
2500.000000   14.934291
2501.000000   14.927915
2502.000000   14.921662
2503.000000   14.915533
2504.000000   14.909528
2505.000000   14.903647
2506.000000   14.897889
2507.000000   14.892255
2508.000000   14.886744
2509.000000   14.881358
2510.000000   14.876095
2511.000000   14.870956
2512.000000   14.865942
2513.000000   14.861051
2514.000000   14.856285
2515.000000   14.851642
2516.000000   14.847124
2517.000000   14.842730
2518.000000   14.838461
2519.000000   14.834316
2520.000000   14.830296
2521.000000   14.826400
2522.000000   14.822629
2523.000000   14.818983
2524.000000   14.815462
2525.000000   14.812066
2526.000000   14.808795
2527.000000   14.805649
2528.000000   14.802629
2529.000000   14.799734
2530.000000   14.796965
2531.000000   14.794321
2532.000000   14.791804
2533.000000   14.789412
2534.000000   14.787147
2535.000000   14.785008
2536.000000   14.782995
2537.000000   14.781109
2538.000000   14.779350
2539.000000   14.777718
2540.000000   14.776212
2541.000000   14.774834
2542.000000   14.773584
2543.000000   14.772461
2544.000000   14.771466
2545.000000   14.770599
2546.000000   14.769860
2547.000000   14.769249
2548.000000   14.768767
2549.000000   14.768414
2550.000000   14.768190
2551.000000   14.768095
2552.000000   14.768129
2553.000000   14.768293
2554.000000   14.768587
2555.000000   14.769011
2556.000000   14.769565
2557.000000   14.770250
2558.000000   14.771065
2559.000000   14.772012
2560.000000   14.773090
2561.000000   14.774299
2562.000000   14.775640
2563.000000   14.777114
2564.000000   14.778719
2565.000000   14.780458
2566.000000   14.782329
2567.000000   14.784333
2568.000000   14.786471
2569.000000   14.788743
2570.000000   14.791148
2571.000000   14.793688
2572.000000   14.796363
2573.000000   14.799172
2574.000000   14.802117
2575.000000   14.805198
2576.000000   14.808415
2577.000000   14.811767
2578.000000   14.815257
2579.000000   14.818883
2580.000000   14.822647
2581.000000   14.826548
2582.000000   14.830588
2583.000000   14.834766
2584.000000   14.839082
2585.000000   14.843538
2586.000000   14.848133
2587.000000   14.852868
2588.000000   14.857743
2589.000000   14.862759
2590.000000   14.867916
2591.000000   14.873215
2592.000000   14.878655
2593.000000   14.884238
2594.000000   14.889964
2595.000000   14.895832
2596.000000   14.901844
2597.000000   14.908001
2598.000000   14.914301
2599.000000   14.920747
2600.000000   14.927338
2601.000000   14.934075
2602.000000   14.940958
2603.000000   14.947988
2604.000000   14.955165
2605.000000   14.962490
2606.000000   14.969963
2607.000000   14.977585
2608.000000   14.985356
2609.000000   14.993277
2610.000000   15.001348
2611.000000   15.009570
2612.000000   15.017943
2613.000000   15.026468
2614.000000   15.035146
2615.000000   15.043976
2616.000000   15.052960
2617.000000   15.062098
2618.000000   15.071391
2619.000000   15.080838
2620.000000   15.090442
2621.000000   15.100202
2622.000000   15.110119
2623.000000   15.120193
2624.000000   15.130425
2625.000000   15.140817
2626.000000   15.151368
2627.000000   15.162078
2628.000000   15.172950
2629.000000   15.183982
2630.000000   15.195177
2631.000000   15.206534
2632.000000   15.218055
2633.000000   15.229739
2634.000000   15.241589
2635.000000   15.253603
2636.000000   15.265784
2637.000000   15.278131
2638.000000   15.290645
2639.000000   15.303328
2640.000000   15.316180
2641.000000   15.329201
2642.000000   15.342393
2643.000000   15.355756
2644.000000   15.369290
2645.000000   15.382998
2646.000000   15.396878
2647.000000   15.410933
2648.000000   15.425163
2649.000000   15.439569
2650.000000   15.454151
2651.000000   15.468910
2652.000000   15.483848
2653.000000   15.498965
2654.000000   15.514262
2655.000000   15.529740
2656.000000   15.545399
2657.000000   15.561241
2658.000000   15.577266
2659.000000   15.593476
2660.000000   15.609871
2661.000000   15.626451
2662.000000   15.643219
2663.000000   15.660175
2664.000000   15.677320
2665.000000   15.694654
2666.000000   15.712179
2667.000000   15.729896
2668.000000   15.747806
2669.000000   15.765910
2670.000000   15.784208
2671.000000   15.802702
2672.000000   15.821393
2673.000000   15.840281
2674.000000   15.859369
2675.000000   15.878656
2676.000000   15.898144
2677.000000   15.917835
2678.000000   15.937728
2679.000000   15.957826
2680.000000   15.978129
2681.000000   15.998638
2682.000000   16.019355
2683.000000   16.040281
2684.000000   16.061417
2685.000000   16.082763
2686.000000   16.104322
2687.000000   16.126094
2688.000000   16.148081
2689.000000   16.170284
2690.000000   16.192704
2691.000000   16.215343
2692.000000   16.238200
2693.000000   16.261279
2694.000000   16.284580
2695.000000   16.308104
2696.000000   16.331853
2697.000000   16.355828
2698.000000   16.380031
2699.000000   16.404462
2700.000000   16.429124
2701.000000   16.454017
2702.000000   16.479142
2703.000000   16.504503
2704.000000   16.530098
2705.000000   16.555932
2706.000000   16.582003
2707.000000   16.608315
2708.000000   16.634868
2709.000000   16.661665
2710.000000   16.688706
2711.000000   16.715993
2712.000000   16.743528
2713.000000   16.771312
2714.000000   16.799346
2715.000000   16.827634
2716.000000   16.856175
2717.000000   16.884972
2718.000000   16.914026
2719.000000   16.943339
2720.000000   16.972913
2721.000000   17.002749
2722.000000   17.032849
2723.000000   17.063215
2724.000000   17.093849
2725.000000   17.124751
2726.000000   17.155925
2727.000000   17.187372
2728.000000   17.219094
2729.000000   17.251092
2730.000000   17.283369
2731.000000   17.315926
2732.000000   17.348765
2733.000000   17.381888
2734.000000   17.415298
2735.000000   17.448995
2736.000000   17.482983
2737.000000   17.517263
2738.000000   17.551837
2739.000000   17.586707
2740.000000   17.621875
2741.000000   17.657344
2742.000000   17.693115
2743.000000   17.729191
2744.000000   17.765573
2745.000000   17.802265
2746.000000   17.839268
2747.000000   17.876584
2748.000000   17.914216
2749.000000   17.952165
2750.000000   17.990435
2751.000000   18.029028
2752.000000   18.067946
2753.000000   18.107191
2754.000000   18.146766
2755.000000   18.186673
2756.000000   18.226914
2757.000000   18.267493
2758.000000   18.308412
2759.000000   18.349672
2760.000000   18.391278
2761.000000   18.433231
2762.000000   18.475534
2763.000000   18.518190
2764.000000   18.561201
2765.000000   18.604570
2766.000000   18.648300
2767.000000   18.692394
2768.000000   18.736854
2769.000000   18.781683
2770.000000   18.826885
2771.000000   18.872461
2772.000000   18.918416
2773.000000   18.964752
2774.000000   19.011471
2775.000000   19.058578
2776.000000   19.106075
2777.000000   19.153965
2778.000000   19.202251
2779.000000   19.250937
2780.000000   19.300025
2781.000000   19.349520
2782.000000   19.399423
2783.000000   19.449740
2784.000000   19.500472
2785.000000   19.551623
2786.000000   19.603198
2787.000000   19.655198
2788.000000   19.707629
2789.000000   19.760493
2790.000000   19.813793
2791.000000   19.867535
2792.000000   19.921720
2793.000000   19.976353
2794.000000   20.031439
2795.000000   20.086979
2796.000000   20.142980
2797.000000   20.199443
2798.000000   20.256374
2799.000000   20.313776
2800.000000   20.371653
2801.000000   20.430010
2802.000000   20.488850
2803.000000   20.548177
2804.000000   20.607997
2805.000000   20.668313
2806.000000   20.729130
2807.000000   20.790451
2808.000000   20.852282
2809.000000   20.914626
2810.000000   20.977489
2811.000000   21.040875
2812.000000   21.104789
2813.000000   21.169235
2814.000000   21.234218
2815.000000   21.299743
2816.000000   21.365814
2817.000000   21.432438
2818.000000   21.499618
2819.000000   21.567360
2820.000000   21.635669
2821.000000   21.704551
2822.000000   21.774009
2823.000000   21.844050
2824.000000   21.914680
2825.000000   21.985902
2826.000000   22.057724
2827.000000   22.130150
2828.000000   22.203187
2829.000000   22.276840
2830.000000   22.351114
2831.000000   22.426016
2832.000000   22.501552
2833.000000   22.577727
2834.000000   22.654547
2835.000000   22.732020
2836.000000   22.810151
2837.000000   22.888946
2838.000000   22.968411
2839.000000   23.048554
2840.000000   23.129381
2841.000000   23.210899
2842.000000   23.293113
2843.000000   23.376032
2844.000000   23.459661
2845.000000   23.544009
2846.000000   23.629081
2847.000000   23.714886
2848.000000   23.801430
2849.000000   23.888721
2850.000000   23.976766
2851.000000   24.065573
2852.000000   24.155150
2853.000000   24.245504
2854.000000   24.336643
2855.000000   24.428575
2856.000000   24.521308
2857.000000   24.614851
2858.000000   24.709211
2859.000000   24.804397
2860.000000   24.900418
2861.000000   24.997282
2862.000000   25.094998
2863.000000   25.193575
2864.000000   25.293022
2865.000000   25.393347
2866.000000   25.494561
2867.000000   25.596672
2868.000000   25.699689
2869.000000   25.803624
2870.000000   25.908484
2871.000000   26.014281
2872.000000   26.121024
2873.000000   26.228723
2874.000000   26.337389
2875.000000   26.447032
2876.000000   26.557662
2877.000000   26.669291
2878.000000   26.781928
2879.000000   26.895586
2880.000000   27.010276
2881.000000   27.126008
2882.000000   27.242794
2883.000000   27.360646
2884.000000   27.479576
2885.000000   27.599596
2886.000000   27.720718
2887.000000   27.842954
2888.000000   27.966316
2889.000000   28.090819
2890.000000   28.216473
2891.000000   28.343293
2892.000000   28.471292
2893.000000   28.600483
2894.000000   28.730879
2895.000000   28.862496
2896.000000   28.995346
2897.000000   29.129444
2898.000000   29.264805
2899.000000   29.401443
2900.000000   29.539373
2901.000000   29.678610
2902.000000   29.819170
2903.000000   29.961068
2904.000000   30.104321
2905.000000   30.248943
2906.000000   30.394952
2907.000000   30.542364
2908.000000   30.691196
2909.000000   30.841465
2910.000000   30.993188
2911.000000   31.146383
2912.000000   31.301067
2913.000000   31.457260
2914.000000   31.614979
2915.000000   31.774243
2916.000000   31.935071
2917.000000   32.097482
2918.000000   32.261497
2919.000000   32.427134
2920.000000   32.594415
2921.000000   32.763359
2922.000000   32.933988
2923.000000   33.106323
2924.000000   33.280385
2925.000000   33.456197
2926.000000   33.633780
2927.000000   33.813158
2928.000000   33.994353
2929.000000   34.177388
2930.000000   34.362288
2931.000000   34.549076
2932.000000   34.737778
2933.000000   34.928417
2934.000000   35.121020
2935.000000   35.315612
2936.000000   35.512219
2937.000000   35.710868
2938.000000   35.911586
2939.000000   36.114401
2940.000000   36.319341
2941.000000   36.526433
2942.000000   36.735708
2943.000000   36.947194
2944.000000   37.160922
2945.000000   37.376922
2946.000000   37.595225
2947.000000   37.815863
2948.000000   38.038867
2949.000000   38.264271
2950.000000   38.492107
2951.000000   38.722409
2952.000000   38.955213
2953.000000   39.190552
2954.000000   39.428462
2955.000000   39.668980
2956.000000   39.912143
2957.000000   40.157988
2958.000000   40.406554
2959.000000   40.657878
2960.000000   40.912002
2961.000000   41.168965
2962.000000   41.428809
2963.000000   41.691575
2964.000000   41.957306
2965.000000   42.226045
2966.000000   42.497837
2967.000000   42.772726
2968.000000   43.050759
2969.000000   43.331982
2970.000000   43.616443
2971.000000   43.904191
2972.000000   44.195274
2973.000000   44.489743
2974.000000   44.787649
2975.000000   45.089046
2976.000000   45.393985
2977.000000   45.702522
2978.000000   46.014711
2979.000000   46.330610
2980.000000   46.650276
2981.000000   46.973767
2982.000000   47.301144
2983.000000   47.632467
2984.000000   47.967798
2985.000000   48.307202
2986.000000   48.650743
2987.000000   48.998487
2988.000000   49.350501
2989.000000   49.706854
2990.000000   50.067617
2991.000000   50.432860
2992.000000   50.802657
2993.000000   51.177083
2994.000000   51.556213
2995.000000   51.940125
2996.000000   52.328899
2997.000000   52.722615
2998.000000   53.121356
2999.000000   53.525206
3000.000000   53.934252
3001.000000   54.348582
3002.000000   54.768285
3003.000000   55.193453
3004.000000   55.624181
3005.000000   56.060563
3006.000000   56.502698
3007.000000   56.950685
3008.000000   57.404628
3009.000000   57.864630
3010.000000   58.330798
3011.000000   58.803242
3012.000000   59.282072
3013.000000   59.767404
3014.000000   60.259353
3015.000000   60.758040
3016.000000   61.263585
3017.000000   61.776115
3018.000000   62.295755
3019.000000   62.822638
3020.000000   63.356897
3021.000000   63.898668
3022.000000   64.448091
3023.000000   65.005310
3024.000000   65.570471
3025.000000   66.143724
3026.000000   66.725223
3027.000000   67.315125
3028.000000   67.913592
3029.000000   68.520787
3030.000000   69.136881
3031.000000   69.762046
3032.000000   70.396459
3033.000000   71.040303
3034.000000   71.693763
3035.000000   72.357031
3036.000000   73.030301
3037.000000   73.713775
3038.000000   74.407658
3039.000000   75.112161
3040.000000   75.827500
3041.000000   76.553897
3042.000000   77.291579
3043.000000   78.040779
3044.000000   78.801738
3045.000000   79.574700
3046.000000   80.359919
3047.000000   81.157652
3048.000000   81.968165
3049.000000   82.791732
3050.000000   83.628632
3051.000000   84.479153
3052.000000   85.343591
3053.000000   86.222250
3054.000000   87.115441
3055.000000   88.023485
3056.000000   88.946712
3057.000000   89.885460
3058.000000   90.840077
3059.000000   91.810922
3060.000000   92.798364
3061.000000   93.802780
3062.000000   94.824561
3063.000000   95.864107
3064.000000   96.921832
3065.000000   97.998159
3066.000000   99.093527
3067.000000  100.208385
3068.000000  101.343198
3069.000000  102.498442
3070.000000  103.674609
3071.000000  104.872207
3072.000000  106.091758
3073.000000  107.333799
3074.000000  108.598887
3075.000000  109.887593
3076.000000  111.200507
3077.000000  112.538238
3078.000000  113.901414
3079.000000  115.290684
3080.000000  116.706716
3081.000000  118.150200
3082.000000  119.621849
3083.000000  121.122400
3084.000000  122.652614
3085.000000  124.213275
3086.000000  125.805196
3087.000000  127.429215
3088.000000  129.086202
3089.000000  130.777052
3090.000000  132.502694
3091.000000  134.264088
3092.000000  136.062227
3093.000000  137.898139
3094.000000  139.772889
3095.000000  141.687579
3096.000000  143.643350
3097.000000  145.641386
3098.000000  147.682912
3099.000000  149.769199
3100.000000  151.901564
3101.000000  154.081373
3102.000000  156.310043
3103.000000  158.589045
3104.000000  160.919905
3105.000000  163.304208
3106.000000  165.743599
3107.000000  168.239789
3108.000000  170.794552
3109.000000  173.409737
3110.000000  176.087262
3111.000000  178.829125
3112.000000  181.637401
3113.000000  184.514254
3114.000000  187.461933
3115.000000  190.482781
3116.000000  193.579240
3117.000000  196.753853
3118.000000  200.009272
3119.000000  203.348260
3120.000000  206.773702
3121.000000  210.288607
3122.000000  213.896116
3123.000000  217.599508
3124.000000  221.402209
3125.000000  225.307799
3126.000000  229.320021
3127.000000  233.442789
3128.000000  237.680196
3129.000000  242.036527
3130.000000  246.516271
3131.000000  251.124125
3132.000000  255.865014
3133.000000  260.744101
3134.000000  265.766800
3135.000000  270.938790
3136.000000  276.266036
3137.000000  281.754797
3138.000000  287.411654
3139.000000  293.243520
3140.000000  299.257668
3141.000000  305.461747
3142.000000  311.863811
3143.000000  318.472339
3144.000000  325.296268
3145.000000  332.345016
3146.000000  339.628517
3147.000000  347.157254
3148.000000  354.942294
3149.000000  362.995329
3150.000000  371.328715
3151.000000  379.955518
3152.000000  388.889562
3153.000000  398.145481
3154.000000  407.738776
3155.000000  417.685875
3156.000000  428.004196
3157.000000  438.712221
3158.000000  449.829568
3159.000000  461.377074
3160.000000  473.376886
3161.000000  485.852552
3162.000000  498.829125
3163.000000  512.333276
3164.000000  526.393412
3165.000000  541.039805
3166.000000  556.304731
3167.000000  572.222623
3168.000000  588.830228
3169.000000  606.166786
3170.000000  624.274213
3171.000000  643.197305
3172.000000  662.983950
3173.000000  683.685362
3174.000000  705.356321
3175.000000  728.055439
3176.000000  751.845428
3177.000000  776.793397
3178.000000  802.971150
3179.000000  830.455502
3180.000000  859.328600
3181.000000  889.678249
3182.000000  921.598238
3183.000000  955.188650
3184.000000  990.556160
3185.000000 1027.814292
3186.000000 1067.083627
3187.000000 1108.491941
3188.000000 1152.174228
3189.000000 1198.272599
3190.000000 1246.935992
3191.000000 1298.319643
3192.000000 1352.584260
3193.000000 1409.894825
3194.000000 1470.418916
3195.000000 1534.324476
3196.000000 1601.776885
3197.000000 1672.935244
3198.000000 1747.947723
3199.000000 1826.945885
3200.000000 1910.037879
3201.000000 1997.300478
3202.000000 2088.769982
3203.000000 2184.432142
3204.000000 2284.211374
3205.000000 2387.959761
3206.000000 2495.446491
3207.000000 2606.348669
3208.000000 2720.244566
3209.000000 2836.610560
3210.000000 2954.822985
3211.000000 3074.165946
3212.000000 3193.845798
3213.000000 3313.012384
3214.000000 3430.786422
3215.000000 3546.291648
3216.000000 3658.689650
3217.000000 3767.214822
3218.000000 3871.206729
3219.000000 3970.137206
3220.000000 4063.629898
3221.000000 4151.470365
3222.000000 4233.605457
3223.000000 4310.131252
3224.000000 4381.269612
3225.000000 4447.334296
3226.000000 4508.688683
3227.000000 4565.698228
3228.000000 4618.681918
3229.000000 4667.867634
3230.000000 4713.356657
3231.000000 4755.102061
3232.000000 4792.904686
3233.000000 4826.428533
3234.000000 4855.235154
3235.000000 4878.833966
3236.000000 4896.742916
3237.000000 4908.551966
3238.000000 4913.980862
3239.000000 4912.922974
3240.000000 4905.468739
3241.000000 4891.905049
3242.000000 4872.690446
3243.000000 4848.409327
3244.000000 4819.711071
3245.000000 4787.241543
3246.000000 4751.574798
3247.000000 4713.152164
3248.000000 4672.234615
3249.000000 4628.872758
3250.000000 4582.897176
3251.000000 4533.930216
3252.000000 4481.418766
3253.000000 4424.685781
3254.000000 4362.996538
3255.000000 4295.633811
3256.000000 4221.974705
3257.000000 4141.561148
3258.000000 4054.156368
3259.000000 3959.781165
3260.000000 3858.726371
3261.000000 3751.541064
3262.000000 3638.999294
3263.000000 3522.050639
3264.000000 3401.761396
3265.000000 3279.253428
3266.000000 3155.646859
3267.000000 3032.011185
3268.000000 2909.327488
3269.000000 2788.462604
3270.000000 2670.154658
3271.000000 2555.008415
3272.000000 2443.498353
3273.000000 2335.977315
3274.000000 2232.688697
3275.000000 2133.780498
3276.000000 2039.319908
3277.000000 1949.307479
3278.000000 1863.690284
3279.000000 1782.373692
3280.000000 1705.231611
3281.000000 1632.115192
3282.000000 1562.860061
3283.000000 1497.292216
3284.000000 1435.232752
3285.000000 1376.501560
3286.000000 1320.920179
3287.000000 1268.313929
3288.000000 1218.513471
3289.000000 1171.355897
3290.000000 1126.685439
3291.000000 1084.353900
3292.000000 1044.220850
3293.000000 1006.153650
3294.000000  970.027355
3295.000000  935.724512
3296.000000  903.134905
3297.000000  872.155244
3298.000000  842.688835
3299.000000  814.645228
3300.000000  787.939867
3301.000000  762.493737
3302.000000  738.233017
3303.000000  715.088751
3304.000000  692.996527
3305.000000  671.896169
3306.000000  651.731457
3307.000000  632.449844
3308.000000  614.002213
3309.000000  596.342627
3310.000000  579.428114
3311.000000  563.218455
3312.000000  547.675992
3313.000000  532.765446
3314.000000  518.453753
3315.000000  504.709909
3316.000000  491.504821
3317.000000  478.811183
3318.000000  466.603344
3319.000000  454.857201
3320.000000  443.550086
3321.000000  432.660677
3322.000000  422.168898
3323.000000  412.055842
3324.000000  402.303690
3325.000000  392.895639
3326.000000  383.815837
3327.000000  375.049318
3328.000000  366.581948
3329.000000  358.400368
3330.000000  350.491947
3331.000000  342.844737
3332.000000  335.447427
3333.000000  328.289303
3334.000000  321.360217
3335.000000  314.650544
3336.000000  308.151159
3337.000000  301.853399
3338.000000  295.749039
3339.000000  289.830268
3340.000000  284.089662
3341.000000  278.520160
3342.000000  273.115047
3343.000000  267.867933
3344.000000  262.772731
3345.000000  257.823645
3346.000000  253.015152
3347.000000  248.341984
3348.000000  243.799118
3349.000000  239.381761
3350.000000  235.085336
3351.000000  230.905475
3352.000000  226.838002
3353.000000  222.878927
3354.000000  219.024435
3355.000000  215.270878
3356.000000  211.614763
3357.000000  208.052748
3358.000000  204.581632
3359.000000  201.198351
3360.000000  197.899966
3361.000000  194.683661
3362.000000  191.546736
3363.000000  188.486600
3364.000000  185.500767
3365.000000  182.586853
3366.000000  179.742565
3367.000000  176.965703
3368.000000  174.254153
3369.000000  171.605883
3370.000000  169.018940
3371.000000  166.491443
3372.000000  164.021587
3373.000000  161.607631
3374.000000  159.247902
3375.000000  156.940788
3376.000000  154.684737
3377.000000  152.478253
3378.000000  150.319895
3379.000000  148.208274
3380.000000  146.142050
3381.000000  144.119934
3382.000000  142.140678
3383.000000  140.203080
3384.000000  138.305980
3385.000000  136.448259
3386.000000  134.628834
3387.000000  132.846662
3388.000000  131.100732
3389.000000  129.390071
3390.000000  127.713735
3391.000000  126.070813
3392.000000  124.460425
3393.000000  122.881718
3394.000000  121.333867
3395.000000  119.816076
3396.000000  118.327573
3397.000000  116.867609
3398.000000  115.435462
3399.000000  114.030431
3400.000000  112.651837
3401.000000  111.299023
3402.000000  109.971351
3403.000000  108.668205
3404.000000  107.388985
3405.000000  106.133112
3406.000000  104.900021
3407.000000  103.689169
3408.000000  102.500024
3409.000000  101.332073
3410.000000  100.184818
3411.000000   99.057774
3412.000000   97.950472
3413.000000   96.862455
3414.000000   95.793280
3415.000000   94.742518
3416.000000   93.709749
3417.000000   92.694567
3418.000000   91.696579
3419.000000   90.715399
3420.000000   89.750656
3421.000000   88.801987
3422.000000   87.869038
3423.000000   86.951467
3424.000000   86.048941
3425.000000   85.161135
3426.000000   84.287732
3427.000000   83.428427
3428.000000   82.582919
3429.000000   81.750919
3430.000000   80.932141
3431.000000   80.126311
3432.000000   79.333159
3433.000000   78.552424
3434.000000   77.783851
3435.000000   77.027192
3436.000000   76.282204
3437.000000   75.548651
3438.000000   74.826304
3439.000000   74.114939
3440.000000   73.414337
3441.000000   72.724286
3442.000000   72.044577
3443.000000   71.375008
3444.000000   70.715382
3445.000000   70.065506
3446.000000   69.425191
3447.000000   68.794256
3448.000000   68.172520
3449.000000   67.559808
3450.000000   66.955952
3451.000000   66.360783
3452.000000   65.774140
3453.000000   65.195864
3454.000000   64.625801
3455.000000   64.063798
3456.000000   63.509709
3457.000000   62.963388
3458.000000   62.424695
3459.000000   61.893493
3460.000000   61.369647
3461.000000   60.853024
3462.000000   60.343498
3463.000000   59.840942
3464.000000   59.345233
3465.000000   58.856252
3466.000000   58.373881
3467.000000   57.898006
3468.000000   57.428513
3469.000000   56.965295
3470.000000   56.508243
3471.000000   56.057253
3472.000000   55.612221
3473.000000   55.173048
3474.000000   54.739635
3475.000000   54.311887
3476.000000   53.889708
3477.000000   53.473008
3478.000000   53.061696
3479.000000   52.655684
3480.000000   52.254886
3481.000000   51.859217
3482.000000   51.468594
3483.000000   51.082938
3484.000000   50.702167
3485.000000   50.326206
3486.000000   49.954977
3487.000000   49.588407
3488.000000   49.226422
3489.000000   48.868952
3490.000000   48.515926
3491.000000   48.167275
3492.000000   47.822933
3493.000000   47.482834
3494.000000   47.146914
3495.000000   46.815109
3496.000000   46.487357
3497.000000   46.163599
3498.000000   45.843774
3499.000000   45.527824
3500.000000   45.215693
3501.000000   44.907324
3502.000000   44.602663
3503.000000   44.301656
3504.000000   44.004250
3505.000000   43.710394
3506.000000   43.420037
3507.000000   43.133129
3508.000000   42.849622
3509.000000   42.569468
3510.000000   42.292620
3511.000000   42.019033
3512.000000   41.748661
3513.000000   41.481461
3514.000000   41.217389
3515.000000   40.956402
3516.000000   40.698459
3517.000000   40.443520
3518.000000   40.191544
3519.000000   39.942493
3520.000000   39.696326
3521.000000   39.453008
3522.000000   39.212500
3523.000000   38.974767
3524.000000   38.739773
3525.000000   38.507483
3526.000000   38.277862
3527.000000   38.050878
3528.000000   37.826496
3529.000000   37.604686
3530.000000   37.385414
3531.000000   37.168650
3532.000000   36.954364
3533.000000   36.742525
3534.000000   36.533105
3535.000000   36.326074
3536.000000   36.121404
3537.000000   35.919067
3538.000000   35.719037
3539.000000   35.521287
3540.000000   35.325790
3541.000000   35.132521
3542.000000   34.941455
3543.000000   34.752568
3544.000000   34.565834
3545.000000   34.381232
3546.000000   34.198736
3547.000000   34.018326
3548.000000   33.839978
3549.000000   33.663670
3550.000000   33.489382
3551.000000   33.317093
3552.000000   33.146781
3553.000000   32.978427
3554.000000   32.812011
3555.000000   32.647515
3556.000000   32.484918
3557.000000   32.324203
3558.000000   32.165351
3559.000000   32.008345
3560.000000   31.853168
3561.000000   31.699803
3562.000000   31.548233
3563.000000   31.398442
3564.000000   31.250414
3565.000000   31.104134
3566.000000   30.959587
3567.000000   30.816758
3568.000000   30.675633
3569.000000   30.536197
3570.000000   30.398437
3571.000000   30.262341
3572.000000   30.127894
3573.000000   29.995084
3574.000000   29.863899
3575.000000   29.734326
3576.000000   29.606355
3577.000000   29.479974
3578.000000   29.355171
3579.000000   29.231937
3580.000000   29.110261
3581.000000   28.990132
3582.000000   28.871541
3583.000000   28.754479
3584.000000   28.638937
3585.000000   28.524905
3586.000000   28.412376
3587.000000   28.301341
3588.000000   28.191792
3589.000000   28.083723
3590.000000   27.977124
3591.000000   27.871991
3592.000000   27.768316
3593.000000   27.666093
3594.000000   27.565316
3595.000000   27.465979
3596.000000   27.368077
3597.000000   27.271606
3598.000000   27.176559
3599.000000   27.082934
3600.000000   26.990726
3601.000000   26.899931
3602.000000   26.810546
3603.000000   26.722567
3604.000000   26.635993
3605.000000   26.550820
3606.000000   26.467047
3607.000000   26.384672
3608.000000   26.303693
3609.000000   26.224110
3610.000000   26.145921
3611.000000   26.069126
3612.000000   25.993726
3613.000000   25.919721
3614.000000   25.847111
3615.000000   25.775898
3616.000000   25.706082
3617.000000   25.637667
3618.000000   25.570653
3619.000000   25.505044
3620.000000   25.440843
3621.000000   25.378054
3622.000000   25.316679
3623.000000   25.256724
3624.000000   25.198192
3625.000000   25.141090
3626.000000   25.085423
3627.000000   25.031196
3628.000000   24.978417
3629.000000   24.927092
3630.000000   24.877228
3631.000000   24.828834
3632.000000   24.781918
3633.000000   24.736489
3634.000000   24.692557
3635.000000   24.650131
3636.000000   24.609222
3637.000000   24.569842
3638.000000   24.532001
3639.000000   24.495713
3640.000000   24.460990
3641.000000   24.427846
3642.000000   24.396295
3643.000000   24.366351
3644.000000   24.338031
3645.000000   24.311351
3646.000000   24.286327
3647.000000   24.262978
3648.000000   24.241322
3649.000000   24.221377
3650.000000   24.203165
3651.000000   24.186706
3652.000000   24.172022
3653.000000   24.159135
3654.000000   24.148069
3655.000000   24.138849
3656.000000   24.131500
3657.000000   24.126049
3658.000000   24.122523
3659.000000   24.120950
3660.000000   24.121361
3661.000000   24.123787
3662.000000   24.128258
3663.000000   24.134810
3664.000000   24.143476
3665.000000   24.154292
3666.000000   24.167295
3667.000000   24.182525
3668.000000   24.200021
3669.000000   24.219825
3670.000000   24.241981
3671.000000   24.266533
3672.000000   24.293527
3673.000000   24.323013
3674.000000   24.355041
3675.000000   24.389661
3676.000000   24.426930
3677.000000   24.466903
3678.000000   24.509638
3679.000000   24.555195
3680.000000   24.603639
3681.000000   24.655033
3682.000000   24.709446
3683.000000   24.766949
3684.000000   24.827614
3685.000000   24.891518
3686.000000   24.958739
3687.000000   25.029360
3688.000000   25.103466
3689.000000   25.181145
3690.000000   25.262491
3691.000000   25.347598
3692.000000   25.436568
3693.000000   25.529503
3694.000000   25.626511
3695.000000   25.727705
3696.000000   25.833203
3697.000000   25.943125
3698.000000   26.057599
3699.000000   26.176756
3700.000000   26.300735
3701.000000   26.429679
3702.000000   26.563737
3703.000000   26.703066
3704.000000   26.847828
3705.000000   26.998193
3706.000000   27.154337
3707.000000   27.316446
3708.000000   27.484712
3709.000000   27.659337
3710.000000   27.840531
3711.000000   28.028514
3712.000000   28.223517
3713.000000   28.425779
3714.000000   28.635552
3715.000000   28.853100
3716.000000   29.078697
3717.000000   29.312632
3718.000000   29.555206
3719.000000   29.806738
3720.000000   30.067557
3721.000000   30.338013
3722.000000   30.618469
3723.000000   30.909309
3724.000000   31.210935
3725.000000   31.523769
3726.000000   31.848254
3727.000000   32.184857
3728.000000   32.534067
3729.000000   32.896401
3730.000000   33.272400
3731.000000   33.662637
3732.000000   34.067712
3733.000000   34.488261
3734.000000   34.924951
3735.000000   35.378488
3736.000000   35.849616
3737.000000   36.339121
3738.000000   36.847832
3739.000000   37.376627
3740.000000   37.926433
3741.000000   38.498231
3742.000000   39.093060
3743.000000   39.712019
3744.000000   40.356272
3745.000000   41.027056
3746.000000   41.725680
3747.000000   42.453534
3748.000000   43.212095
3749.000000   44.002930
3750.000000   44.827706
3751.000000   45.688197
3752.000000   46.586288
3753.000000   47.523989
3754.000000   48.503440
3755.000000   49.526920
3756.000000   50.596864
3757.000000   51.715867
3758.000000   52.886700
3759.000000   54.112325
3760.000000   55.395907
3761.000000   56.740829
3762.000000   58.150712
3763.000000   59.629433
3764.000000   61.181142
3765.000000   62.810286
3766.000000   64.521632
3767.000000   66.320292
3768.000000   68.211748
3769.000000   70.201882
3770.000000   72.297006
3771.000000   74.503896
3772.000000   76.829826
3773.000000   79.282603
3774.000000   81.870607
3775.000000   84.602830
3776.000000   87.488917
3777.000000   90.539211
3778.000000   93.764791
3779.000000   97.177512
3780.000000  100.790050
3781.000000  104.615933
3782.000000  108.669567
3783.000000  112.966264
3784.000000  117.522240
3785.000000  122.354615
3786.000000  127.481372
3787.000000  132.921298
3788.000000  138.693880
3789.000000  144.819156
3790.000000  151.317495
3791.000000  158.209302
3792.000000  165.514626
3793.000000  173.252647
3794.000000  181.441016
3795.000000  190.095030
3796.000000  199.226604
3797.000000  208.843025
3798.000000  218.945449
3799.000000  229.527144
3800.000000  240.571468
3801.000000  252.049611
3802.000000  263.918145
3803.000000  276.116495
3804.000000  288.564478
3805.000000  301.160119
3806.000000  313.778046
3807.000000  326.268787
3808.000000  338.459373
3809.000000  350.155613
3810.000000  361.146365
3811.000000  371.209979
3812.000000  380.122869
3813.000000  387.669865
3814.000000  393.655678
3815.000000  397.916509
3816.000000  400.330637
3817.000000  400.826765
3818.000000  399.389121
3819.000000  396.058620
3820.000000  390.929957
3821.000000  384.144987
3822.000000  375.883239
3823.000000  366.350699
3824.000000  355.768080
3825.000000  344.359694
3826.000000  332.343780
3827.000000  319.924823
3828.000000  307.288069
3829.000000  294.596179
3830.000000  281.987758
3831.000000  269.577407
3832.000000  257.456898
3833.000000  245.697103
3834.000000  234.350353
3835.000000  223.452971
3836.000000  213.027791
3837.000000  203.086538
3838.000000  193.631992
3839.000000  184.659890
3840.000000  176.160571
3841.000000  168.120358
3842.000000  160.522700
3843.000000  153.349104
3844.000000  146.579879
3845.000000  140.194726
3846.000000  134.173187
3847.000000  128.494997
3848.000000  123.140331
3849.000000  118.089999
3850.000000  113.325561
3851.000000  108.829422
3852.000000  104.584870
3853.000000  100.576100
3854.000000   96.788218
3855.000000   93.207220
3856.000000   89.819977
3857.000000   86.614193
3858.000000   83.578373
3859.000000   80.701783
3860.000000   77.974407
3861.000000   75.386904
3862.000000   72.930569
3863.000000   70.597289
3864.000000   68.379508
3865.000000   66.270186
3866.000000   64.262762
3867.000000   62.351127
3868.000000   60.529585
3869.000000   58.792827
3870.000000   57.135902
3871.000000   55.554192
3872.000000   54.043389
3873.000000   52.599469
3874.000000   51.218675
3875.000000   49.897495
3876.000000   48.632648
3877.000000   47.421061
3878.000000   46.259863
3879.000000   45.146361
3880.000000   44.078034
3881.000000   43.052520
3882.000000   42.067601
3883.000000   41.121197
3884.000000   40.211355
3885.000000   39.336239
3886.000000   38.494125
3887.000000   37.683388
3888.000000   36.902503
3889.000000   36.150031
3890.000000   35.424616
3891.000000   34.724983
3892.000000   34.049926
3893.000000   33.398309
3894.000000   32.769058
3895.000000   32.161159
3896.000000   31.573653
3897.000000   31.005636
3898.000000   30.456248
3899.000000   29.924678
3900.000000   29.410157
3901.000000   28.911956
3902.000000   28.429386
3903.000000   27.961790
3904.000000   27.508547
3905.000000   27.069066
3906.000000   26.642787
3907.000000   26.229177
3908.000000   25.827730
3909.000000   25.437963
3910.000000   25.059418
3911.000000   24.691660
3912.000000   24.334271
3913.000000   23.986856
3914.000000   23.649037
3915.000000   23.320456
3916.000000   23.000767
3917.000000   22.689644
3918.000000   22.386773
3919.000000   22.091856
3920.000000   21.804607
3921.000000   21.524753
3922.000000   21.252034
3923.000000   20.986199
3924.000000   20.727011
3925.000000   20.474239
3926.000000   20.227667
3927.000000   19.987083
3928.000000   19.752287
3929.000000   19.523086
3930.000000   19.299296
3931.000000   19.080739
3932.000000   18.867247
3933.000000   18.658654
3934.000000   18.454806
3935.000000   18.255551
3936.000000   18.060746
3937.000000   17.870251
3938.000000   17.683933
3939.000000   17.501663
3940.000000   17.323318
3941.000000   17.148780
3942.000000   16.977935
3943.000000   16.810671
3944.000000   16.646884
3945.000000   16.486471
3946.000000   16.329334
3947.000000   16.175378
3948.000000   16.024513
3949.000000   15.876650
3950.000000   15.731703
3951.000000   15.589592
3952.000000   15.450238
3953.000000   15.313563
3954.000000   15.179495
3955.000000   15.047962
3956.000000   14.918896
3957.000000   14.792230
3958.000000   14.667900
3959.000000   14.545845
3960.000000   14.426005
3961.000000   14.308320
3962.000000   14.192737
3963.000000   14.079200
3964.000000   13.967657
3965.000000   13.858057
3966.000000   13.750352
3967.000000   13.644493
3968.000000   13.540435
3969.000000   13.438133
3970.000000   13.337543
3971.000000   13.238625
3972.000000   13.141337
3973.000000   13.045641
3974.000000   12.951497
3975.000000   12.858870
3976.000000   12.767723
3977.000000   12.678021
3978.000000   12.589731
3979.000000   12.502820
3980.000000   12.417256
3981.000000   12.333008
3982.000000   12.250047
3983.000000   12.168343
3984.000000   12.087869
3985.000000   12.008596
3986.000000   11.930497
3987.000000   11.853548
3988.000000   11.777723
3989.000000   11.702997
3990.000000   11.629347
3991.000000   11.556749
3992.000000   11.485180
3993.000000   11.414620
3994.000000   11.345047
3995.000000   11.276440
3996.000000   11.208778
3997.000000   11.142043
3998.000000   11.076215
3999.000000   11.011275
4000.000000   10.947205
